timestamp,ecg_value
0.0,0
0.0,0
0.0,0
0.0,0
0.0,0
0.0,0
0.0,0
0.0,0
0.0,0
0.0,0
0.0,0
0.0,0
0.0,0
0.0,0
0.0,0
0.0,0
0.0,0
0.0,0
0.0,0
0.0,0
0.0,0
0.0,0
0.0,0
0.0,0
0.0,0
0.0,0
0.0,0
0.0,0
0.0,0
0.0,0
0.0,0
0.0,0
0.0,0
0.0,0
0.0,0
0.0,0
0.0,0
0.0,0
0.0,0
0.0,0
0.0,0
0.0,0
0.007,0
0.007,0
0.009,0
0.009,0
0.009,0
0.009,0
0.009,0
0.009,0
0.0104,0
0.0104,0
0.0104,0
0.0104,0
0.0104,0
0.0104,0
0.0104,0
0.0104,0
0.0104,0
0.0104,0
0.0104,0
0.0104,0
0.0104,0
0.0129,0
0.0129,0
0.0129,0
0.0129,0
0.0129,0
0.0129,0
0.0141,0
0.0141,0
0.0141,0
0.0153,0
0.0153,0
0.0171,0
0.0171,0
0.0171,0
0.0171,0
0.0171,0
0.0171,0
0.0171,0
0.0171,0
0.0171,0
0.0171,0
0.0191,0
0.0191,0
0.0191,0
0.0191,0
0.0191,0
0.0191,0
0.0191,0
0.0191,0
0.0191,0
0.0191,0
0.0206,0
0.0206,0
0.0206,0
0.0206,0
0.0206,0
0.0226,0
0.0241,0
0.0241,0
0.0258,0
0.0258,0
0.0282,0
0.0282,0
0.0282,0
0.0299,0
0.0299,0
0.0299,0
0.0299,0
0.0299,0
0.0299,0
0.0299,0
0.0299,0
0.0299,0
0.0325,0
0.0325,0
0.0325,0
0.0325,0
0.0325,0
0.0325,0
0.0325,0
0.0325,0
0.0325,0
0.0325,0
0.0325,45
0.0325,130
0.0325,218
0.0325,309
0.0325,413
0.0325,524
0.0325,626
0.0325,686
0.0325,687
0.0325,676
0.0325,640
0.0325,616
0.0325,634
0.0325,688
0.0325,690
0.0325,691
0.0325,691
0.0325,691
0.0325,691
0.0325,691
0.0325,692
0.0325,692
0.0325,692
0.0325,692
0.0325,692
0.0325,693
0.0325,693
0.0325,692
0.0325,693
0.0325,692
0.0421,692
0.0421,692
0.0421,692
0.0421,692
0.0421,692
0.0421,692
0.0421,692
0.0421,692
0.0421,692
0.0421,693
0.0421,692
0.0421,692
0.0421,692
0.0421,691
0.0421,692
0.0421,693
0.0421,692
0.0421,693
0.0421,692
0.0421,692
0.0421,693
0.0421,692
0.0421,692
0.0421,692
0.0421,693
0.0421,692
0.0421,693
0.0421,693
0.0421,692
0.0421,692
0.0421,693
0.0421,693
0.0421,692
0.0421,692
0.0421,692
0.05,691
0.05,692
0.05,692
0.05,692
0.05,693
0.05,693
0.05,691
0.05,692
0.05,693
0.05,692
0.05,692
0.05,692
0.05,692
0.05,691
0.05,692
0.05,692
0.05,692
0.05,692
0.05,692
0.05,693
0.05,693
0.05,692
0.05,692
0.05,692
0.05,692
0.05,693
0.05,692
0.05,692
0.05,693
0.05,694
0.05,692
0.05,692
0.05,692
0.05,692
0.05,692
0.05,693
0.05,692
0.05,692
0.05,692
0.05,692
0.05,692
0.05,692
0.0579,692
0.0579,692
0.0579,692
0.0579,692
0.0579,691
0.0579,692
0.0579,692
0.0579,691
0.0579,692
0.0579,692
0.0579,691
0.0579,692
0.0579,692
0.0579,692
0.0579,692
0.0579,692
0.0579,692
0.0579,692
0.0579,692
0.0579,692
0.0579,693
0.0579,692
0.0579,692
0.0579,692
0.0579,692
0.0579,693
0.0579,692
0.0579,693
0.0579,692
0.0579,692
0.0579,692
0.0579,692
0.0579,692
0.0579,692
0.0579,692
0.0579,692
0.0579,692
0.0579,693
0.0579,692
0.0579,692
0.0579,692
0.0579,693
0.0579,692
0.0579,692
0.0579,692
0.0663,692
0.0663,693
0.0663,692
0.0663,693
0.0663,692
0.0663,692
0.0663,693
0.0663,692
0.0663,692
0.0663,693
0.0663,692
0.0663,692
0.0663,692
0.0663,693
0.0663,691
0.0663,692
0.0663,692
0.0663,692
0.0663,692
0.0663,693
0.0663,692
0.0663,693
0.0663,693
0.0663,692
0.0663,692
0.0663,692
0.0663,692
0.0663,692
0.0663,692
0.0663,692
0.0663,693
0.0663,693
0.0663,692
0.0663,693
0.0663,692
0.0663,691
0.0663,693
0.0663,693
0.0663,692
0.0663,693
0.0663,692
0.0663,692
0.0663,693
0.0663,692
0.0663,693
0.0663,692
0.0663,692
0.0663,692
0.0663,692
0.0663,692
0.0748,692
0.0748,692
0.0748,692
0.0748,692
0.0748,692
0.0748,693
0.0748,693
0.0748,693
0.0748,692
0.0748,693
0.0748,692
0.0748,692
0.0748,692
0.0748,692
0.0748,693
0.0748,692
0.0748,693
0.0748,693
0.0748,692
0.0748,692
0.0748,692
0.0748,693
0.0748,692
0.0748,692
0.0748,691
0.0748,693
0.0748,692
0.0748,692
0.0748,692
0.0748,693
0.0748,692
0.0748,692
0.0748,693
0.0748,692
0.0748,692
0.0748,693
0.0748,692
0.0748,693
0.0748,693
0.0748,692
0.0748,692
0.0748,692
0.0748,692
0.0748,693
0.0748,692
0.0748,692
0.0748,692
0.0748,692
0.0833,692
0.0833,692
0.0833,691
0.0833,692
0.0833,692
0.0833,692
0.0833,692
0.0833,692
0.0833,691
0.0833,692
0.0833,691
0.0833,691
0.0833,692
0.0833,691
0.0833,691
0.0833,691
0.0833,691
0.0833,691
0.0833,692
0.0833,691
0.0833,691
0.0833,691
0.0833,691
0.0833,691
0.0833,691
0.0833,691
0.0833,691
0.0833,690
0.0833,690
0.0833,691
0.0833,691
0.0833,691
0.0833,691
0.0833,691
0.0833,690
0.0833,690
0.0833,689
0.0833,688
0.0833,689
0.0833,690
0.0833,690
0.0833,689
0.0833,689
0.0833,687
0.0833,678
0.0833,658
0.0833,659
0.0833,684
0.0833,688
0.0833,688
0.0833,687
0.0833,673
0.0833,630
0.0833,590
0.0833,579
0.0833,605
0.0833,650
0.0833,684
0.0833,682
0.0833,649
0.0833,591
0.0833,537
0.0833,513
0.0833,530
0.0833,575
0.0833,623
0.0833,641
0.0833,615
0.0833,552
0.0833,479
0.0833,424
0.0833,406
0.0833,418
0.0833,437
0.0833,432
0.0833,387
0.0833,306
0.0833,222
0.0833,162
0.0833,147
0.0833,183
0.0833,250
0.0833,313
0.0833,353
0.0833,367
0.0833,364
0.0833,354
0.0833,357
0.0833,384
0.0833,428
0.0833,466
0.0833,471
0.0833,436
0.0833,374
0.0833,308
0.0833,270
0.0833,276
0.0833,319
0.0833,376
0.0833,411
0.0833,406
0.0833,362
0.0833,301
0.0833,256
0.0833,247
0.0993,276
0.0993,328
0.0993,373
0.0993,380
0.0993,347
0.0993,289
0.0993,236
0.0993,213
0.1007,231
0.1007,278
0.1007,327
0.1007,349
0.1007,327
0.1007,274
0.1007,215
0.1018,179
0.1018,183
0.1018,223
0.1018,276
0.1018,311
0.1018,305
0.1018,262
0.1018,203
0.1018,158
0.1018,149
0.1033,180
0.1033,233
0.1033,278
0.1033,287
0.1033,255
0.1033,197
0.1033,144
0.1033,121
0.1033,140
0.1033,190
0.1033,242
0.1049,265
0.1049,245
0.1049,194
0.1049,137
0.1049,103
0.1049,109
0.1049,151
0.1049,205
0.1049,242
0.1049,237
0.1065,194
0.1065,135
0.1065,89
0.1065,80
0.1065,111
0.1065,167
0.1065,214
0.1065,225
0.1065,197
0.1065,142
0.108,90
0.108,68
0.108,87
0.108,135
0.108,186
0.108,209
0.108,191
0.108,141
0.108,85
0.108,50
0.108,55
0.108,97
0.1097,152
0.1097,189
0.1097,186
0.1097,144
0.1097,85
0.1097,38
0.1097,28
0.1097,59
0.1097,112
0.1097,158
0.1097,169
0.1113,139
0.1113,83
0.1113,29
0.1113,4
0.1113,23
0.1113,74
0.1113,127
0.1113,154
0.1113,139
0.1113,91
0.1113,34
0.1113,0
0.1113,7
0.1113,50
0.1113,108
0.1113,148
0.1113,148
0.1113,111
0.1113,57
0.1113,14
0.1113,9
0.1113,46
0.1113,107
0.1113,159
0.1113,177
0.1113,153
0.1113,104
0.1113,56
0.1113,37
0.1113,59
0.1113,113
0.1113,171
0.1113,201
0.1113,191
0.1151,147
0.1151,94
0.1151,63
0.1151,71
0.1151,117
0.1151,176
0.1151,218
0.1151,219
0.1151,181
0.1151,126
0.1151,82
0.1151,74
0.1151,107
0.1151,164
0.1151,213
0.1151,226
0.1151,199
0.1151,144
0.1151,91
0.1151,69
0.1151,89
0.1151,141
0.1151,196
0.1151,225
0.1151,211
0.1151,164
0.1151,108
0.1151,73
0.1151,78
0.1151,120
0.1151,177
0.1151,217
0.1151,217
0.1151,179
0.1151,124
0.1151,81
0.1151,73
0.1151,106
0.1151,161
0.1151,210
0.1151,224
0.1151,197
0.1151,144
0.1151,93
0.1151,71
0.1151,91
0.1151,143
0.1151,199
0.1151,227
0.1151,215
0.1151,167
0.1151,110
0.1151,76
0.1151,81
0.1151,123
0.1151,182
0.1151,223
0.1151,225
0.1151,187
0.1151,131
0.1151,86
0.1151,77
0.1151,109
0.1151,166
0.1151,215
0.1151,231
0.1151,205
0.1151,151
0.1151,99
0.1151,76
0.1151,95
0.1151,146
0.1151,201
0.1151,231
0.1151,217
0.1151,170
0.1151,114
0.1151,79
0.1151,84
0.1151,127
0.1151,185
0.1151,227
0.1151,229
0.1151,191
0.1151,135
0.1151,90
0.1151,80
0.1151,112
0.1151,169
0.1151,220
0.1151,235
0.1242,208
0.1242,154
0.1242,102
0.1242,79
0.1242,98
0.1242,149
0.1242,204
0.1242,234
0.1242,222
0.1242,175
0.1242,119
0.1242,83
0.1242,87
0.1242,129
0.1242,187
0.1242,228
0.1242,229
0.1242,191
0.1242,135
0.1242,89
0.1242,79
0.1242,110
0.1242,166
0.1242,216
0.1242,232
0.1242,206
0.1242,152
0.1242,97
0.1242,71
0.1242,86
0.1242,134
0.1242,188
0.1242,217
0.1242,207
0.1242,162
0.1242,108
0.1242,75
0.1242,81
0.1242,125
0.1242,185
0.1242,227
0.1242,231
0.1242,194
0.1242,139
0.1242,94
0.1242,85
0.1242,118
0.1242,176
0.1242,228
0.1242,246
0.1242,221
0.1242,170
0.1242,120
0.1242,99
0.1242,120
0.1242,173
0.1242,232
0.1242,265
0.1242,255
0.1242,210
0.1242,154
0.1242,118
0.1242,121
0.1242,163
0.1242,221
0.1242,263
0.1242,265
0.1242,228
0.1312,173
0.1312,127
0.1312,117
0.1312,148
0.1312,204
0.1312,255
0.1312,273
0.1312,250
0.1312,198
0.1312,147
0.1312,123
0.1312,137
0.1312,180
0.1312,225
0.1312,241
0.1312,212
0.1312,144
0.1332,60
0.1332,0
0.1332,0
0.1332,0
0.1332,16
0.1332,40
0.1332,43
0.1332,20
0.1332,0
0.1332,0
0.1332,8
0.1332,77
0.1332,183
0.1332,278
0.1332,324
0.1332,312
0.1332,259
0.1332,198
0.1332,160
0.1332,163
0.1332,203
0.1332,252
0.1352,280
0.1352,270
0.1352,226
0.1352,174
0.1352,141
0.1352,146
0.1352,190
0.1352,249
0.1352,294
0.1352,298
0.1352,263
0.1352,208
0.1352,163
0.1352,151
0.1352,180
0.1352,235
0.1352,284
0.1352,302
0.1372,276
0.1372,223
0.1372,170
0.1372,144
0.1372,161
0.1372,211
0.1372,269
0.1372,300
0.1372,290
0.1372,245
0.1372,190
0.1372,153
0.1372,156
0.1372,198
0.1372,256
0.1372,299
0.1372,303
0.1372,267
0.1392,212
0.1392,166
0.1392,154
0.1392,183
0.1392,238
0.1392,288
0.1392,305
0.1392,281
0.1392,229
0.1392,175
0.1392,150
0.1392,166
0.1392,215
0.1392,270
0.1412,301
0.1412,291
0.1412,245
0.1412,188
0.1412,150
0.1412,151
0.1412,191
0.1412,249
0.1412,292
0.1412,296
0.1412,261
0.1412,205
0.1412,158
0.1432,146
0.1432,175
0.1432,230
0.1432,281
0.1432,299
0.1432,275
0.1432,223
0.1432,169
0.1432,142
0.1432,157
0.1432,207
0.1432,264
0.1432,295
0.1432,286
0.1452,241
0.1452,184
0.1452,145
0.1452,146
0.1452,185
0.1452,241
0.1452,283
0.1452,286
0.1452,250
0.1452,193
0.1452,145
0.1452,132
0.147,161
0.147,216
0.147,268
0.147,287
0.147,264
0.147,211
0.147,158
0.147,132
0.147,148
0.147,197
0.147,253
0.147,285
0.147,276
0.147,232
0.149,178
0.149,141
0.149,145
0.149,188
0.149,248
0.149,295
0.149,303
0.149,271
0.149,219
0.149,177
0.149,168
0.149,201
0.149,259
0.149,315
0.151,338
0.151,317
0.151,269
0.151,218
0.151,194
0.151,212
0.151,264
0.151,322
0.151,359
0.151,352
0.151,307
0.151,253
0.151,217
0.151,219
0.153,261
0.153,320
0.153,368
0.153,373
0.153,339
0.153,283
0.153,237
0.153,225
0.153,255
0.153,310
0.153,364
0.153,383
0.153,360
0.153,306
0.155,254
0.155,229
0.155,244
0.155,294
0.155,353
0.155,386
0.155,379
0.155,333
0.155,278
0.155,240
0.155,242
0.155,282
0.155,340
0.155,385
0.157,391
0.157,356
0.157,299
0.157,252
0.157,238
0.157,266
0.157,320
0.157,374
0.157,393
0.157,371
0.157,317
0.157,263
0.157,237
0.157,252
0.159,301
0.159,360
0.159,393
0.159,384
0.159,339
0.159,282
0.159,245
0.159,247
0.159,287
0.159,346
0.159,391
0.159,397
0.159,363
0.159,306
0.161,260
0.161,248
0.161,276
0.161,331
0.161,383
0.161,403
0.161,380
0.161,328
0.161,275
0.161,248
0.161,263
0.161,311
0.1628,369
0.1628,401
0.1628,393
0.1628,348
0.1628,291
0.1628,254
0.1628,255
0.1628,295
0.1628,355
0.1628,400
0.1628,406
0.1628,373
0.1648,317
0.1648,270
0.1648,256
0.1648,284
0.1648,339
0.1648,393
0.1648,414
0.1648,392
0.1648,340
0.1648,287
0.1648,260
0.1648,274
0.1648,322
0.1648,379
0.1648,411
0.1668,403
0.1668,359
0.1668,303
0.1668,264
0.1668,263
0.1668,300
0.1668,359
0.1668,403
0.1668,409
0.1668,378
0.1668,322
0.1668,276
0.1668,261
0.1668,286
0.1668,338
0.1668,387
0.1688,403
0.1688,378
0.1688,323
0.1688,269
0.1688,243
0.1688,257
0.1688,305
0.1688,365
0.1688,400
0.1688,395
0.1688,354
0.1688,297
0.1688,259
0.1688,258
0.1688,296
0.1688,355
0.1688,400
0.1688,409
0.1708,377
0.1708,321
0.1708,275
0.1708,261
0.1708,289
0.1708,345
0.1708,400
0.1708,423
0.1708,404
0.1708,355
0.1708,302
0.1708,276
0.1708,289
0.1708,338
0.1708,395
0.1708,430
0.1708,424
0.1708,382
0.1728,326
0.1728,287
0.1728,285
0.1728,322
0.1728,380
0.1728,425
0.1728,432
0.1728,400
0.1728,346
0.1728,297
0.1728,282
0.1728,308
0.1728,362
0.1728,413
0.1728,432
0.1728,406
0.1728,345
0.1728,277
0.1728,232
0.1788,224
0.1788,246
0.1788,273
0.1788,276
0.1788,241
0.1788,177
0.1788,111
0.1788,69
0.1949,74
0.1949,127
0.1949,207
0.1949,280
0.1949,328
0.1949,349
0.1949,342
0.1949,325
0.2109,325
0.213,354
0.2151,399
0.2151,437
0.2151,444
0.2151,413
0.2151,356
0.2241,296
0.2271,269
0.2297,283
0.2297,333
0.2297,396
0.2297,434
0.2297,431
0.2297,391
0.2297,336
0.2433,297
0.2439,296
0.2439,335
0.2439,393
0.2439,438
0.2439,447
0.2439,416
0.2439,363
0.2588,314
0.2611,298
0.2611,322
0.2611,375
0.2611,426
0.2611,448
0.2611,429
0.2611,380
0.2748,324
0.2748,295
0.2748,306
0.2748,354
0.2748,411
0.2748,446
0.2748,441
0.2748,400
0.2907,345
0.2937,305
0.2957,303
0.2977,339
0.2977,396
0.2977,440
0.2977,448
0.2977,416
0.3066,362
0.3066,311
0.3066,295
0.3066,318
0.3066,370
0.3066,422
0.3066,444
0.3066,425
0.3235,375
0.3246,320
0.3277,291
0.3296,302
0.3316,348
0.3336,405
0.3336,440
0.3367,434
0.3396,392
0.3396,335
0.3396,294
0.3396,290
0.3479,324
0.3487,379
0.3517,423
0.3517,430
0.3517,397
0.3584,342
0.359,292
0.3617,274
0.3637,297
0.3656,350
0.3672,402
0.3697,424
0.3717,405
0.3736,356
0.3752,299
0.3752,268
0.3752,277
0.3752,320
0.3835,376
0.3835,409
0.3835,403
0.3835,359
0.3835,300
0.3835,259
0.3835,253
0.3835,286
0.3994,341
0.3994,386
0.3994,394
0.3994,362
0.3994,304
0.3994,254
0.3994,235
0.3994,257
0.4155,308
0.4172,362
0.4197,386
0.4217,368
0.4236,318
0.4247,266
0.4247,236
0.4247,247
0.4314,292
0.4314,350
0.4314,387
0.4314,384
0.4314,345
0.4314,290
0.4314,252
0.4314,251
0.4475,290
0.4475,351
0.4516,402
0.4536,417
0.4536,392
0.4536,342
0.4536,295
0.4536,282
0.4637,308
0.4637,365
0.4637,421
0.4637,448
0.4637,435
0.4637,389
0.4637,337
0.4637,310
0.4797,322
0.4797,371
0.4797,431
0.4797,469
0.4797,468
0.4797,431
0.4797,377
0.4797,336
0.4797,332
0.4955,368
0.4955,423
0.4955,469
0.4955,479
0.4955,450
0.4955,396
0.4955,347
0.5115,328
0.5115,352
0.5115,404
0.5115,457
0.5115,480
0.5115,463
0.5115,415
0.5249,361
0.5275,328
0.5275,339
0.5307,384
0.5325,439
0.5352,474
0.5368,470
0.538,429
0.5412,374
0.543,331
0.543,325
0.543,361
0.543,417
0.543,464
0.543,473
0.543,444
0.5587,390
0.5587,339
0.5607,319
0.5628,341
0.5648,392
0.5648,444
0.5693,466
0.5711,448
0.5711,398
0.5747,343
0.5771,311
0.5791,319
0.5811,365
0.5831,421
0.5851,457
0.5851,455
0.5851,415
0.5907,360
0.5907,316
0.5907,311
0.5907,345
0.5907,401
0.5907,447
0.5907,457
0.5907,428
0.6067,374
0.6067,321
0.6067,301
0.6067,321
0.6067,373
0.6067,425
0.6067,450
0.6067,433
0.6229,384
0.625,329
0.625,298
0.625,307
0.625,352
0.625,409
0.625,445
0.625,441
0.639,401
0.639,345
0.6424,301
0.6424,294
0.6424,328
0.6424,383
0.6424,429
0.6424,441
0.6562,412
0.6562,359
0.6562,307
0.6562,288
0.6562,309
0.6562,362
0.6562,416
0.6562,441
0.6713,425
0.6713,378
0.6713,322
0.6713,290
0.6713,297
0.6713,342
0.6713,398
0.6713,435
0.6872,432
0.6897,391
0.6914,333
0.6931,288
0.6954,280
0.6977,313
0.6977,369
0.6977,417
0.7035,430
0.7035,403
0.7072,351
0.709,298
0.7117,277
0.7136,295
0.7157,343
0.7172,394
0.7196,417
0.7217,399
0.7217,351
0.7253,296
0.7276,266
0.7296,275
0.7316,321
0.7336,381
0.7357,421
0.7357,422
0.7357,385
0.7357,329
0.7357,287
0.7357,280
0.7357,314
0.7357,371
0.7518,419
0.7536,432
0.7536,404
0.7536,351
0.7536,301
0.7536,282
0.7536,305
0.7536,359
0.7536,415
0.7696,444
0.7696,432
0.7696,385
0.7696,331
0.7696,298
0.7696,304
0.7696,347
0.7837,402
0.7837,440
0.7837,439
0.7837,401
0.7837,345
0.7837,301
0.7837,295
0.7837,327
0.7997,384
0.7997,432
0.7997,446
0.7997,420
0.7997,368
0.7997,318
0.7997,297
0.7997,316
0.8155,366
0.8155,415
0.8155,433
0.8155,405
0.8155,341
0.8254,267
0.8254,212
0.8254,195
0.8312,211
0.8312,241
0.8312,259
0.8368,248
0.8388,209
0.8409,158
0.8429,126
0.8449,136
0.8469,189
0.8484,271
0.8484,360
0.8484,422
0.8484,435
0.8484,405
0.8593,361
0.8593,334
0.8631,341
0.8658,375
0.8673,414
0.8673,428
0.8673,407
0.8673,357
0.8746,302
0.8746,272
0.8746,282
0.8746,328
0.883,389
0.8861,430
0.8876,432
0.8897,395
0.8907,340
0.8936,297
0.8956,290
0.8956,322
0.8989,378
0.8989,425
0.8989,439
0.8989,411
0.8989,359
0.8989,307
0.8989,286
0.8989,305
0.9149,356
0.9149,411
0.9149,438
0.9149,423
0.9149,374
0.9254,317
0.9254,282
0.9254,287
0.931,328
0.9336,386
0.9357,425
0.9357,426
0.9357,389
0.9357,333
0.9357,289
0.9357,281
0.9474,313
0.9489,369
0.9517,416
0.9537,430
0.9537,402
0.9537,349
0.9537,296
0.9537,274
0.9632,292
0.9657,342
0.9676,397
0.9676,423
0.9676,410
0.9676,364
0.9676,307
0.9676,272
0.9788,277
0.9788,318
0.9788,375
0.9788,414
0.9788,414
0.9788,375
0.9788,317
0.9788,272
0.995,262
0.9976,292
0.9993,347
0.9993,395
0.9993,408
0.9993,381
0.9993,326
0.9993,274
1.0111,251
1.0111,269
1.0156,317
1.0172,372
1.0196,398
1.0216,383
1.0236,333
1.0256,277
1.0273,241
1.0273,243
1.0273,284
1.0273,340
1.0273,380
1.0273,380
1.0273,340
1.0273,283
1.0432,237
1.0432,227
1.0432,257
1.0432,310
1.0432,360
1.0432,374
1.0432,345
1.0432,290
1.059,237
1.0616,211
1.0636,228
1.0657,276
1.0657,330
1.0657,360
1.0657,346
1.0657,299
1.0749,243
1.0776,209
1.0796,215
1.0816,257
1.0816,317
1.0816,362
1.0816,368
1.0816,334
1.0909,283
1.0909,242
1.0909,236
1.0909,271
1.0909,331
1.0909,387
1.0909,408
1.0909,387
1.107,338
1.107,290
1.107,271
1.107,292
1.107,346
1.107,405
1.107,437
1.107,429
1.1229,387
1.1249,333
1.1267,299
1.1286,304
1.132,347
1.1337,404
1.1354,447
1.1354,450
1.1391,415
1.1391,362
1.1391,317
1.1391,308
1.1391,339
1.1391,395
1.1391,444
1.1391,462
1.1549,438
1.1571,386
1.1589,333
1.1589,309
1.1589,327
1.1589,377
1.1589,432
1.1589,461
1.1701,449
1.1701,404
1.1749,349
1.1749,311
1.1749,315
1.1749,357
1.1749,414
1.1858,454
1.1858,457
1.1858,422
1.1858,367
1.1925,320
1.1925,309
1.1925,338
1.1925,393
1.2016,442
1.2031,459
1.2051,435
1.2071,384
1.2071,330
1.2071,306
1.2071,323
1.2071,373
1.2176,427
1.2176,455
1.2176,444
1.2176,398
1.2176,343
1.2271,307
1.2271,311
1.2271,352
1.2336,409
1.2336,450
1.2336,453
1.2336,418
1.2336,363
1.2336,315
1.2336,304
1.2336,334
1.25,388
1.2506,438
1.2506,454
1.2506,430
1.2506,378
1.2506,325
1.2506,301
1.2506,316
1.2657,367
1.2657,423
1.2657,452
1.2657,442
1.2657,399
1.2657,343
1.2657,307
1.2657,308
1.2816,349
1.2836,406
1.2836,448
1.2836,452
1.2836,417
1.2836,364
1.2836,317
1.2836,306
1.2976,335
1.2976,391
1.2976,441
1.2976,458
1.2976,435
1.2976,384
1.2976,331
1.2976,306
1.3137,321
1.3137,370
1.3137,425
1.3137,454
1.3137,444
1.3137,399
1.3137,343
1.3275,306
1.3297,307
1.3297,348
1.3336,405
1.3357,447
1.3376,451
1.3376,416
1.3376,361
1.3376,314
1.3455,302
1.3476,331
1.3496,386
1.3516,435
1.3537,451
1.3556,427
1.3571,375
1.3591,320
1.3616,294
1.3616,307
1.3616,357
1.3616,412
1.3616,443
1.3616,434
1.3616,390
1.3616,333
1.3775,295
1.3794,295
1.3816,331
1.3836,386
1.3856,424
1.3877,423
1.3896,385
1.3908,328
1.3931,282
1.3957,271
1.3976,301
1.3996,358
1.4017,411
1.4036,432
1.4056,411
1.4072,362
1.409,309
1.409,285
1.409,300
1.409,351
1.409,407
1.4178,438
1.4178,429
1.4178,385
1.4178,328
1.4178,291
1.4279,293
1.4279,333
1.4337,391
1.4337,435
1.4376,441
1.4376,408
1.4376,353
1.4376,306
1.4376,293
1.4376,320
1.4498,375
1.4498,425
1.4498,444
1.4498,421
1.4498,371
1.4498,316
1.4498,290
1.4498,305
1.4658,352
1.4671,407
1.4697,437
1.4716,427
1.4716,383
1.4738,327
1.4759,290
1.4759,291
1.4817,329
1.4817,384
1.4817,419
1.4817,412
1.4817,364
1.4817,291
1.4817,226
1.4957,191
1.4976,194
1.4988,221
1.4988,250
1.4988,253
1.4988,226
1.4988,179
1.5092,134
1.5092,122
1.5136,156
1.5156,227
1.5171,316
1.5196,398
1.5196,437
1.5196,426
1.5196,386
1.5282,348
1.5297,337
1.5297,359
1.5297,398
1.5297,426
1.5297,422
1.5297,383
1.5297,326
1.5297,281
1.5457,271
1.5457,301
1.5457,360
1.5457,414
1.5457,436
1.5457,415
1.5457,366
1.5457,312
1.5617,287
1.5636,300
1.5636,348
1.5636,404
1.5636,435
1.5636,426
1.5636,380
1.5636,321
1.5776,282
1.5776,282
1.5776,320
1.5776,377
1.5776,420
1.5877,424
1.5896,390
1.5909,334
1.5935,287
1.5956,273
1.5976,300
1.5976,354
1.5976,405
1.5976,424
1.5976,402
1.5976,352
1.6093,297
1.6093,270
1.6093,283
1.6093,330
1.6093,386
1.6093,418
1.6093,410
1.6093,364
1.6253,306
1.6282,267
1.6282,264
1.6282,300
1.6282,356
1.6282,398
1.6282,404
1.6282,370
1.6413,314
1.6434,266
1.6456,251
1.6476,276
1.6496,328
1.6496,380
1.6496,399
1.6496,377
1.6574,324
1.6591,270
1.6616,242
1.6616,254
1.6616,301
1.6616,358
1.6616,392
1.6616,384
1.6734,339
1.6734,282
1.6734,243
1.6734,241
1.6734,278
1.6734,334
1.6734,379
1.6734,385
1.6894,349
1.6907,292
1.6938,242
1.6958,225
1.6958,250
1.6958,302
1.6958,355
1.6958,375
1.7055,352
1.7055,299
1.7055,243
1.7055,213
1.7055,224
1.7055,269
1.7055,324
1.7055,358
1.7216,349
1.7216,304
1.7216,246
1.7216,205
1.7287,201
1.7287,237
1.7287,292
1.7287,336
1.7376,344
1.7376,311
1.7376,256
1.7376,210
1.7376,195
1.7376,222
1.7376,278
1.7376,333
1.7536,358
1.7536,341
1.7536,293
1.7536,241
1.7536,215
1.7536,231
1.7536,281
1.7536,343
1.7696,384
1.7716,384
1.7735,346
1.7756,295
1.7776,260
1.7796,261
1.7816,302
1.7816,363
1.7857,410
1.7857,420
1.7857,390
1.7857,337
1.7857,290
1.7857,278
1.7857,305
1.7857,361
1.8018,415
1.8018,439
1.8018,420
1.8018,373
1.8018,321
1.8018,295
1.8018,309
1.8018,359
1.8018,417
1.8196,452
1.8216,447
1.8235,404
1.8235,348
1.8276,307
1.8302,304
1.8316,342
1.8336,400
1.8356,445
1.8376,454
1.8396,423
1.841,368
1.8436,320
1.8456,304
1.8476,330
1.8496,384
1.8516,436
1.8536,457
1.8556,438
1.8572,390
1.8572,335
1.8572,307
1.8572,319
1.8655,368
1.8655,425
1.8655,460
1.8655,454
1.8655,412
1.8655,357
1.8655,315
1.8655,312
1.8814,350
1.8836,407
1.8836,452
1.8836,462
1.8836,431
1.8836,377
1.8836,328
1.8836,311
1.8973,335
1.8973,387
1.8973,439
1.8973,461
1.8973,442
1.8973,395
1.8973,342
1.8973,313
1.9133,323
1.9148,371
1.9156,426
1.9156,459
1.9156,453
1.9156,410
1.9253,353
1.9274,311
1.9291,308
1.9313,344
1.9334,401
1.9353,445
1.9372,453
1.9398,422
1.9415,368
1.9432,316
1.9432,299
1.9432,322
1.9495,375
1.9502,429
1.9502,451
1.9502,434
1.9574,386
1.9594,331
1.9594,301
1.9594,311
1.9594,359
1.9594,415
1.9594,452
1.9594,448
1.9735,408
1.9735,352
1.9776,311
1.9796,308
1.9816,345
1.9816,402
1.9816,447
1.9816,455
1.9894,423
1.9894,368
1.9894,317
1.9894,301
1.9894,326
1.9894,382
1.9894,437
1.9894,461
2.0054,445
2.0054,397
2.0054,340
2.0054,308
2.0054,317
2.0054,363
2.0054,419
2.0054,454
2.0215,448
2.0215,405
2.0242,347
2.0276,303
2.0302,299
2.0316,334
2.0316,391
2.0316,437
2.0375,448
2.0375,417
2.0375,362
2.0375,311
2.0375,292
2.0375,312
2.0375,361
2.0375,410
2.0534,429
2.0554,408
2.0554,358
2.0554,302
2.0554,273
2.0554,284
2.0554,331
2.0554,390
2.0695,428
2.0695,427
2.0695,388
2.0695,333
2.0695,292
2.0695,288
2.0695,323
2.0695,380
2.0855,426
2.0855,435
2.0855,404
2.0855,351
2.0855,301
2.0855,285
2.0855,309
2.0855,364
2.1015,420
2.1036,447
2.1056,432
2.1075,385
2.1075,330
2.1117,299
2.1117,308
2.1117,354
2.1173,409
2.1173,444
2.1173,439
2.1173,398
2.1173,341
2.1173,299
2.1298,295
2.1298,331
2.1335,389
2.1356,436
2.1376,448
2.1396,418
2.1407,365
2.1432,314
2.1456,295
2.1476,315
2.1496,361
2.1516,402
2.1536,411
2.1536,375
2.1536,303
2.1536,223
2.1536,163
2.1536,138
2.1655,150
2.1672,182
2.1672,206
2.1672,201
2.1672,167
2.1672,127
2.1672,109
2.1672,133
2.1814,213
2.1814,325
2.1814,426
2.1814,474
2.1814,462
2.1814,411
2.1814,353
2.1814,319
2.1974,328
2.1974,369
2.1974,415
2.1974,436
2.1974,419
2.1974,373
2.1974,318
2.1974,289
2.2132,299
2.2156,347
2.2156,405
2.2156,443
2.2156,441
2.2156,401
2.2156,344
2.2156,300
2.2293,295
2.2322,330
2.2336,388
2.2356,437
2.2376,449
2.2376,421
2.2376,368
2.2376,315
2.2454,294
2.2454,313
2.2454,364
2.2454,416
2.2454,440
2.2454,423
2.2454,374
2.2454,317
2.2615,284
2.2635,292
2.2656,336
2.2672,393
2.2672,431
2.2672,429
2.2672,388
2.2672,331
2.2774,288
2.2796,282
2.2816,315
2.2836,371
2.2856,418
2.2876,430
2.2896,401
2.2896,346
2.2933,293
2.2956,271
2.2956,291
2.2956,342
2.2956,397
2.2956,424
2.2956,408
2.2956,360
2.3092,303
2.3092,270
2.3092,275
2.3092,318
2.3092,376
2.3092,415
2.3092,414
2.3092,376
2.3252,319
2.3277,277
2.3277,269
2.3317,300
2.3317,356
2.3317,402
2.3317,413
2.3317,383
2.3412,327
2.3436,275
2.3456,253
2.3456,271
2.3456,321
2.3456,375
2.3456,400
2.3456,383
2.3573,332
2.3591,275
2.3591,241
2.3591,246
2.3591,288
2.3591,345
2.3591,383
2.3591,381
2.3752,339
2.377,281
2.377,237
2.377,229
2.377,259
2.377,314
2.377,363
2.377,377
2.3894,349
2.3894,294
2.3936,242
2.3936,220
2.3936,239
2.3936,290
2.3936,347
2.3936,376
2.4054,362
2.4073,313
2.4091,258
2.4091,225
2.4091,230
2.4091,274
2.4091,333
2.4091,377
2.4214,380
2.4235,345
2.4235,292
2.4235,252
2.4235,248
2.4317,284
2.4317,345
2.4317,397
2.4374,415
2.4389,392
2.4389,341
2.4431,293
2.4456,275
2.4476,298
2.4497,353
2.4516,410
2.4536,440
2.4556,428
2.4575,383
2.4586,330
2.4616,298
2.4636,306
2.4656,351
2.4672,409
2.4696,449
2.4716,449
2.4735,411
2.4735,356
2.4776,312
2.4776,305
2.4776,338
2.4776,394
2.4857,443
2.4871,457
2.49,430
2.49,377
2.4934,324
2.4952,303
2.4971,322
2.4971,375
2.5018,429
2.5018,457
2.5018,443
2.5018,396
2.5018,340
2.5018,304
2.5018,310
2.5018,355
2.5178,411
2.519,450
2.519,449
2.519,410
2.5249,352
2.5249,306
2.5249,298
2.5249,329
2.5335,386
2.5351,435
2.5371,449
2.5391,421
2.5407,368
2.5425,316
2.5425,294
2.5425,313
2.5496,364
2.5496,418
2.5496,444
2.5496,430
2.5496,382
2.5496,325
2.5496,291
2.5496,297
2.5656,341
2.5656,399
2.5656,438
2.5656,438
2.5656,400
2.5656,343
2.5656,298
2.5656,289
2.5813,321
2.5813,377
2.5852,426
2.5872,441
2.5891,415
2.591,363
2.5927,312
2.5927,291
2.5971,310
2.5971,362
2.5971,415
2.5971,442
2.5971,427
2.5971,381
2.6094,324
2.6094,291
2.6136,298
2.6143,342
2.6143,401
2.6143,442
2.6143,443
2.6143,404
2.6255,346
2.6255,300
2.6292,290
2.6322,323
2.6337,380
2.6356,430
2.6376,447
2.6396,422
2.6409,370
2.6436,317
2.6454,295
2.6454,313
2.6454,365
2.6454,419
2.6454,446
2.6454,432
2.6454,385
2.6454,328
2.6615,293
2.6636,297
2.6658,339
2.6658,397
2.6658,437
2.6658,438
2.6658,401
2.6658,344
2.6774,298
2.6774,287
2.6774,316
2.6774,372
2.6774,421
2.6774,437
2.6774,411
2.6774,360
2.6935,306
2.6935,282
2.6976,299
2.6976,348
2.6976,402
2.6976,428
2.6976,411
2.6976,361
2.7095,300
2.7111,264
2.7136,267
2.7146,309
2.7173,369
2.7173,412
2.7173,417
2.7173,382
2.7253,328
2.7253,283
2.7253,274
2.7253,304
2.7323,359
2.7323,409
2.7323,425
2.7323,401
2.7413,349
2.7413,297
2.7413,274
2.7413,291
2.7413,343
2.7413,401
2.7413,432
2.7413,422
2.7574,379
2.7574,323
2.7574,288
2.7574,293
2.7574,335
2.7574,394
2.7574,435
2.7574,437
2.7735,401
2.7735,344
2.7735,298
2.7735,287
2.7735,318
2.7735,375
2.7735,425
2.7735,442
2.7895,417
2.7895,366
2.7916,311
2.7916,287
2.7916,304
2.7916,354
2.7916,410
2.7916,437
2.8055,421
2.8055,367
2.8055,298
2.8055,247
2.8055,231
2.8055,249
2.8055,278
2.8055,287
2.8216,256
2.8225,191
2.8252,117
2.8252,64
2.8252,54
2.8252,95
2.8326,170
2.8326,247
2.8376,301
2.8391,328
2.8408,329
2.8431,318
2.8456,317
2.8477,343
2.8477,390
2.8477,435
2.8534,453
2.8534,432
2.8534,379
2.8534,318
2.8534,281
2.8534,286
2.8534,328
2.8534,390
2.8694,435
2.8694,440
2.8694,407
2.8694,354
2.8694,308
2.8694,297
2.8694,326
2.8694,383
2.8854,433
2.8854,451
2.8896,427
2.891,375
2.891,321
2.891,295
2.891,311
2.899,361
2.9013,416
2.9036,446
2.9036,436
2.9036,390
2.9036,333
2.9036,295
2.9036,296
2.9036,335
2.9172,391
2.9172,433
2.9172,435
2.9172,399
2.9172,342
2.9172,292
2.9172,277
2.9172,301
2.9328,351
2.9328,396
2.9328,406
2.9328,373
2.9328,305
2.9328,234
2.9328,188
2.9328,183
2.9493,212
2.9511,255
2.9536,280
2.9556,270
2.9556,229
2.9593,179
2.9593,145
2.9593,148
2.9646,188
2.9646,244
2.9646,287
2.9646,293
2.9646,261
2.9752,208
2.9752,162
2.9803,149
2.9803,175
2.9827,227
2.9856,279
2.9871,300
2.9871,282
2.9871,235
2.9927,186
2.9943,160
2.9975,173
2.999,220
3.001,274
3.001,307
3.001,303
3.001,263
3.0086,211
3.0106,176
3.0126,176
3.0126,212
3.0169,267
3.0194,309
3.0194,316
3.0194,286
3.0194,235
3.0194,190
3.0194,175
3.0194,201
3.0334,252
3.0334,301
3.0376,323
3.0376,305
3.0376,258
3.0376,211
3.0376,186
3.0376,199
3.0492,245
3.0512,301
3.0532,335
3.0532,331
3.0532,294
3.0532,245
3.0608,211
3.0631,213
3.0659,252
3.0659,308
3.069,356
3.0717,367
3.0744,339
3.0754,292
3.0785,253
3.08,244
3.08,273
3.0836,329
3.0852,386
3.0852,411
3.0891,399
3.0891,358
3.0932,311
3.0948,291
3.0976,307
3.0996,356
3.0996,414
3.0996,450
3.0996,447
3.1077,412
3.1077,363
3.1077,327
3.1077,327
3.1077,365
3.1158,420
3.1158,462
3.1158,471
3.1158,445
3.1242,397
3.1242,354
3.1242,342
3.13,368
3.1325,417
3.1351,467
3.1351,486
3.1351,468
3.1412,423
3.142,374
3.1442,346
3.1442,358
3.1487,402
3.1487,454
3.1487,486
3.1551,481
3.156,442
3.1593,390
3.1614,353
3.1625,351
3.164,385
3.164,438
3.1675,479
3.1675,486
3.1721,457
3.1744,407
3.1766,362
3.1766,346
3.1803,369
3.1803,417
3.1803,465
3.1864,486
3.1886,468
3.1914,421
3.1931,371
3.1931,343
3.1972,352
3.1972,395
3.1972,447
3.2034,479
3.2051,474
3.2055,436
3.2091,384
3.2114,345
3.2133,343
3.2148,379
3.2161,431
3.2192,473
3.221,483
3.2227,454
3.2227,404
3.2272,360
3.229,344
3.229,368
3.233,418
3.2343,468
3.2372,488
3.2384,471
3.2412,426
3.2432,376
3.2455,348
3.247,360
3.2488,403
3.2488,456
3.2529,491
3.255,486
3.2581,447
3.2594,396
3.2602,359
3.2619,356
3.2651,391
3.2651,444
3.2651,486
3.2712,495
3.2717,467
3.2748,416
3.2774,371
3.279,356
3.281,379
3.281,428
3.285,479
3.2866,501
3.2866,483
3.2912,439
3.2931,390
3.2951,362
3.2951,372
3.298,417
3.298,469
3.3028,502
3.3042,499
3.3078,462
3.3078,409
3.3109,371
3.3114,369
3.3114,403
3.3171,456
3.3171,499
3.3171,507
3.3225,478
3.3257,427
3.3262,380
3.3262,362
3.3309,385
3.3309,434
3.3347,482
3.3347,503
3.3347,485
3.3347,438
3.3438,388
3.3438,361
3.3438,370
3.3438,411
3.351,462
3.351,492
3.351,484
3.3561,441
3.3593,384
3.3608,341
3.3633,335
3.365,370
3.3665,422
3.3675,465
3.371,475
3.3729,447
3.3729,397
3.3769,351
3.379,333
3.379,357
3.3832,407
3.3846,456
3.3863,478
3.3892,461
3.3912,415
3.3938,363
3.3938,332
3.3963,342
3.3963,386
3.3996,439
3.4018,475
3.4018,473
3.4081,436
3.4093,386
3.4108,349
3.4122,346
3.4154,382
3.417,438
3.4187,483
3.4187,496
3.423,471
3.426,423
3.4268,379
3.429,367
3.4313,395
3.4313,450
3.4353,503
3.4353,527
3.4353,509
3.4412,460
3.4434,407
3.4438,377
3.4438,389
3.449,435
3.451,490
3.453,524
3.455,517
3.457,471
3.4584,405
3.461,351
3.463,332
3.465,350
3.467,384
3.469,403
3.471,381
3.473,315
3.4746,234
3.4746,169
3.4746,146
3.4746,171
3.4746,235
3.4746,305
3.4746,350
3.4887,359
3.4887,348
3.4924,338
3.4924,343
3.4963,375
3.4963,427
3.4963,478
3.4963,501
3.5057,482
3.5078,427
3.5086,360
3.5086,311
3.5086,306
3.5086,343
3.5086,402
3.5086,451
3.5207,463
3.5207,433
3.5248,379
3.527,329
3.529,311
3.531,335
3.533,388
3.5356,440
3.537,462
3.539,443
3.5414,392
3.5414,336
3.5414,305
3.5414,315
3.5414,361
3.5414,417
3.5531,452
3.5531,446
3.5531,402
3.5531,344
3.5531,300
3.5531,295
3.5531,330
3.5531,386
3.5692,430
3.5711,438
3.5711,405
3.5711,349
3.5711,297
3.5711,279
3.5711,302
3.5711,356
3.5854,409
3.5876,433
3.5896,414
3.591,363
3.5931,305
3.5951,274
3.5972,283
3.5972,329
3.6012,387
3.6031,423
3.6031,418
3.6031,376
3.6089,317
3.6089,275
3.6089,269
3.6089,304
3.6175,362
3.6175,408
3.6175,418
3.6175,388
3.6175,332
3.6175,281
3.6175,263
3.6175,285
3.6335,338
3.6349,391
3.6359,415
3.6359,396
3.6359,343
3.6359,285
3.6359,252
3.6359,259
3.6494,303
3.6494,362
3.6494,399
3.6494,394
3.6494,352
3.6494,293
3.6494,249
3.6494,241
3.6654,275
3.6654,329
3.6654,376
3.6654,384
3.6654,351
3.6654,293
3.6654,241
3.6654,221
3.6813,242
3.6813,293
3.6813,348
3.6813,372
3.6813,353
3.6813,301
3.6813,244
3.6813,210
3.6974,217
3.6996,261
3.6996,318
3.6996,356
3.6996,353
3.6996,310
3.6996,254
3.6996,212
3.7135,206
3.7156,241
3.7176,299
3.7196,349
3.7216,363
3.7216,335
3.7216,283
3.7216,235
3.7297,220
3.731,247
3.7336,303
3.7356,364
3.7371,394
3.7388,381
3.7388,335
3.7388,282
3.7456,253
3.7456,264
3.7456,312
3.7456,374
3.7456,414
3.7456,414
3.7456,376
3.7456,321
3.7614,280
3.7614,276
3.7614,313
3.7614,372
3.7614,421
3.7614,434
3.7614,407
3.7614,355
3.7773,304
3.7796,286
3.7816,309
3.7836,364
3.7836,419
3.7836,446
3.7836,431
3.7836,383
3.7932,326
3.7952,295
3.7978,304
3.7996,350
3.7996,407
3.7996,445
3.7996,442
3.7996,402
3.8093,345
3.8093,301
3.8093,295
3.8093,330
3.8093,388
3.8093,435
3.8093,447
3.8093,418
3.8254,363
3.8268,310
3.8297,291
3.8316,312
3.8316,365
3.8316,419
3.8363,445
3.8363,429
3.8413,381
3.8431,324
3.8431,292
3.8431,299
3.8431,344
3.8431,402
3.8431,441
3.8431,440
3.8573,400
3.8587,343
3.8613,299
3.8629,292
3.8644,325
3.8677,383
3.8695,430
3.8695,441
3.8735,413
3.8744,358
3.8744,305
3.8744,284
3.8744,305
3.8744,358
3.8744,412
3.8744,437
3.8896,420
3.8896,372
3.8896,316
3.8896,283
3.8896,289
3.8896,334
3.8896,392
3.8896,430
3.9055,428
3.9071,389
3.9071,331
3.9111,287
3.9131,280
3.9131,312
3.9131,370
3.9131,418
3.9213,431
3.9213,403
3.9248,348
3.9248,295
3.9248,274
3.9248,294
3.9248,347
3.9248,402
3.9367,429
3.9389,414
3.9389,366
3.9432,309
3.9451,276
3.9471,283
3.9493,327
3.9514,385
3.9531,424
3.9551,423
3.9571,384
3.9591,325
3.9608,281
3.9624,274
3.9624,306
3.9624,364
3.969,412
3.9711,425
3.9731,397
3.9731,341
3.9772,289
3.9772,268
3.9772,288
3.984,340
3.9847,396
3.9847,423
3.9847,408
3.9847,360
3.9847,302
3.9847,267
3.9847,273
3.9997,315
3.9997,373
3.9997,413
3.9997,414
3.9997,376
3.9997,318
3.9997,274
3.9997,265
4.0157,295
4.0157,350
4.0157,397
4.0157,408
4.0157,379
4.0157,323
4.0157,271
4.0157,251
4.0315,273
4.0331,327
4.0331,387
4.0373,417
4.0373,405
4.0373,359
4.0432,304
4.0432,271
4.0476,276
4.0496,320
4.0516,379
4.0535,418
4.0556,419
4.0581,382
4.0581,324
4.0581,281
4.0581,274
4.0581,308
4.0676,367
4.0696,419
4.0696,436
4.0696,411
4.0696,360
4.0696,308
4.0696,287
4.0696,309
4.0835,362
4.0835,417
4.0835,445
4.0896,432
4.0909,385
4.0936,327
4.0956,293
4.0976,299
4.0996,343
4.0996,401
4.0996,442
4.0996,442
4.0996,404
4.0996,348
4.0996,303
4.0996,295
4.1155,327
4.1155,383
4.1155,428
4.1155,435
4.1155,397
4.1155,327
4.1155,258
4.1155,216
4.1314,212
4.1314,236
4.1334,264
4.1374,266
4.1374,235
4.1374,182
4.1374,126
4.1374,97
4.1472,117
4.1492,178
4.1492,260
4.1492,337
4.1492,389
4.1492,397
4.1588,371
4.1608,338
4.1629,327
4.1649,347
4.1669,388
4.1689,421
4.1709,423
4.1729,388
4.1749,330
4.1769,278
4.1789,258
4.1789,280
4.1789,334
4.1789,395
4.1789,427
4.1789,417
4.1789,371
4.1789,313
4.1951,278
4.1972,282
4.199,324
4.199,384
4.199,424
4.199,425
4.199,388
4.199,330
4.2108,284
4.213,273
4.2142,304
4.2142,361
4.2142,412
4.2142,427
4.2142,401
4.2142,347
4.2267,293
4.2267,269
4.2267,286
4.2267,337
4.2267,393
4.2375,420
4.2375,407
4.2375,360
4.2423,302
4.2423,265
4.2423,268
4.2423,309
4.2423,367
4.2423,408
4.2423,410
4.2423,373
4.2582,315
4.2582,269
4.2582,258
4.2582,289
4.2582,344
4.2582,395
4.2582,412
4.2739,387
4.2739,333
4.2739,281
4.2739,257
4.2739,273
4.2739,323
4.2739,380
4.2739,410
4.2897,398
4.2908,352
4.2908,295
4.2908,259
4.2908,261
4.2908,302
4.2908,360
4.2908,401
4.306,403
4.3075,366
4.3075,308
4.3075,262
4.3075,251
4.3075,281
4.3075,336
4.3075,387
4.322,402
4.322,376
4.3242,321
4.3242,267
4.3242,241
4.3242,258
4.3242,306
4.3242,361
4.3242,391
4.3379,377
4.3379,329
4.3379,272
4.3379,235
4.3379,236
4.3379,275
4.3379,332
4.3539,374
4.3551,376
4.3551,338
4.3551,280
4.3551,232
4.3551,219
4.3551,247
4.3551,300
4.3698,351
4.3698,367
4.3698,341
4.3698,287
4.3698,234
4.3698,209
4.3698,226
4.3698,277
4.3857,335
4.3872,370
4.3896,362
4.3896,317
4.3896,264
4.3896,230
4.3896,237
4.3896,281
4.402,345
4.402,394
4.402,402
4.402,371
4.402,318
4.402,276
4.402,269
4.402,301
4.418,361
4.4196,415
4.4216,434
4.4236,413
4.4236,364
4.4236,312
4.4236,288
4.4236,305
4.4338,357
4.4338,414
4.4338,447
4.4384,438
4.4384,394
4.4384,338
4.4384,301
4.4384,304
4.4497,346
4.4497,404
4.4518,447
4.4518,452
4.4518,416
4.4518,360
4.4518,313
4.4518,301
4.4657,330
4.4657,387
4.4657,439
4.4657,458
4.4657,436
4.4657,385
4.4657,331
4.4657,305
4.4817,321
4.4831,372
4.4856,427
4.4871,459
4.4871,449
4.4871,404
4.4871,348
4.4871,309
4.4977,310
4.4977,351
4.4977,408
4.4977,451
4.4977,455
4.4977,421
4.4977,366
4.4977,318
4.5137,307
4.5137,336
4.5157,391
4.5157,442
4.5157,461
4.5157,438
4.5157,386
4.5157,333
4.5297,307
4.5297,322
4.5297,373
4.5297,428
4.5297,460
4.5389,451
4.5389,407
4.5389,350
4.5457,310
4.5476,311
4.5496,351
4.5516,409
4.5535,452
4.5535,457
4.5535,422
4.5535,367
4.5631,318
4.5631,305
4.5637,332
4.5637,387
4.5637,439
4.5637,458
4.5637,437
4.5754,388
4.5771,333
4.5796,307
4.5816,321
4.5836,371
4.5856,427
4.5872,458
4.5896,449
4.5896,404
4.5931,348
4.5956,309
4.5956,310
4.5995,350
4.5995,408
4.5995,451
4.5995,457
4.5995,422
4.5995,368
4.5995,319
4.5995,306
4.6154,334
4.6154,389
4.6154,440
4.6154,460
4.6154,438
4.6154,387
4.6154,333
4.6154,306
4.6313,321
4.6336,370
4.6356,425
4.6372,458
4.6402,449
4.6408,405
4.6431,348
4.6431,308
4.6475,308
4.6475,348
4.6475,405
4.6475,448
4.6475,453
4.6475,418
4.6475,362
4.6475,311
4.6633,296
4.6656,322
4.6676,376
4.6696,427
4.6716,446
4.6736,425
4.6736,375
4.6777,320
4.6796,293
4.6796,305
4.6796,351
4.6796,405
4.6796,434
4.6796,422
4.6796,375
4.6796,314
4.6956,274
4.6978,274
4.6978,314
4.6978,374
4.6978,421
4.6978,429
4.6978,397
4.6978,343
4.7115,295
4.7136,281
4.7156,309
4.7176,365
4.7196,416
4.7196,437
4.7196,416
4.7196,366
4.7275,310
4.7275,283
4.7275,298
4.7275,348
4.7356,406
4.7372,441
4.7402,435
4.7409,392
4.7437,336
4.7437,298
4.7437,297
4.7437,336
4.7437,394
4.7437,439
4.7437,446
4.7437,413
4.7437,358
4.7598,309
4.7598,294
4.7598,320
4.7598,375
4.7598,427
4.7598,448
4.7598,426
4.7598,375
4.7761,319
4.7761,291
4.7761,304
4.7761,352
4.7761,407
4.7761,439
4.7761,427
4.7761,374
4.793,303
4.793,248
4.793,228
4.793,244
4.793,276
4.793,293
4.793,274
4.8076,220
4.8076,154
4.8096,103
4.8096,90
4.8096,128
4.8096,202
4.8096,279
4.8096,333
4.8096,358
4.8238,356
4.827,339
4.8296,330
4.8316,347
4.8316,387
4.8316,429
4.8316,446
4.8398,425
4.8408,372
4.8436,308
4.8456,268
4.8476,268
4.8496,309
4.8516,372
4.8535,422
4.8556,433
4.8575,402
4.8591,348
4.8616,299
4.8616,282
4.8616,308
4.8616,363
4.8616,415
4.8717,437
4.8717,417
4.8717,366
4.8717,310
4.8717,281
4.8717,292
4.8717,340
4.8717,397
4.8717,430
4.8877,423
4.8877,379
4.8877,321
4.8877,279
4.8877,276
4.8877,313
4.8877,371
4.9037,416
4.9037,424
4.9037,390
4.9037,333
4.9037,283
4.9037,265
4.9037,290
4.9037,345
4.9197,398
4.9197,420
4.9197,400
4.9197,349
4.9197,292
4.9197,262
4.9197,272
4.9197,318
4.9357,376
4.9357,411
4.9357,405
4.9403,363
4.9403,305
4.9403,264
4.9403,261
4.9403,296
4.9509,352
4.9522,397
4.9522,404
4.9522,370
4.9595,312
4.9611,261
4.9634,243
4.9653,266
4.9674,318
4.969,371
4.971,392
4.973,373
4.9748,320
4.9771,264
4.9796,234
4.9816,243
4.9836,289
4.9856,346
4.9871,381
4.9896,374
4.9907,328
4.9907,271
4.9907,229
4.9907,224
4.9997,260
4.9997,315
4.9997,362
4.9997,370
4.9997,335
4.9997,278
4.9997,227
4.9997,207
5.0158,228
5.0172,280
5.0196,332
5.0196,355
5.0196,334
5.0196,282
5.0196,225
5.0196,193
5.0317,201
5.0317,245
5.0317,301
5.0317,338
5.0317,333
5.0402,290
5.0402,234
5.0402,193
5.0477,190
5.0477,227
5.0497,286
5.0497,336
5.0497,350
5.0497,321
5.0497,269
5.0497,223
5.0638,209
5.0638,236
5.0638,293
5.0638,354
5.0638,384
5.0638,371
5.0638,324
5.0638,275
5.0796,248
5.0796,262
5.083,311
5.0856,372
5.0856,411
5.0856,408
5.0856,368
5.0856,311
5.0955,272
5.0965,269
5.0974,305
5.0974,365
5.0974,414
5.0974,427
5.1086,398
5.1086,345
5.1116,296
5.1136,279
5.1156,302
5.1176,357
5.1196,412
5.1216,437
5.1236,421
5.1256,374
5.127,319
5.1297,289
5.1316,297
5.1335,343
5.1353,400
5.1353,437
5.1353,435
5.1405,396
5.1405,339
5.1405,297
5.1405,293
5.1492,329
5.1492,386
5.1492,432
5.1492,443
5.1492,413
5.1492,358
5.1492,305
5.1492,286
5.1652,307
5.1671,361
5.1691,415
5.1691,439
5.1691,423
5.1751,374
5.1772,317
5.1792,285
5.1813,294
5.1822,340
5.1822,398
5.1822,435
5.1822,432
5.1822,392
5.1822,335
5.1822,293
5.1971,288
5.1971,322
5.1971,380
5.1971,425
5.1971,436
5.1971,406
5.1971,351
5.1971,299
5.2129,279
5.2129,300
5.2129,354
5.2129,408
5.2129,434
5.2129,418
5.2129,371
5.2129,315
5.2289,283
5.2289,293
5.2289,340
5.2289,398
5.2289,436
5.2289,435
5.2408,395
5.2408,337
5.2447,294
5.2447,289
5.2447,322
5.2447,379
5.2447,427
5.2447,438
5.2447,410
5.2447,356
5.2612,304
5.2617,284
5.2617,306
5.2617,360
5.2617,414
5.2617,439
5.2617,424
5.2617,376
5.277,320
5.278,289
5.278,297
5.278,344
5.278,402
5.278,440
5.278,439
5.278,399
5.2928,342
5.295,298
5.297,291
5.297,325
5.297,383
5.297,431
5.297,444
5.297,416
5.3088,363
5.3088,312
5.3088,293
5.3088,315
5.3088,370
5.3088,425
5.3088,451
5.3088,436
5.3248,389
5.3276,332
5.3296,299
5.3316,306
5.3336,349
5.3356,406
5.3376,444
5.3396,443
5.3412,403
5.3436,346
5.3456,300
5.3476,292
5.3496,326
5.3516,385
5.3535,435
5.3535,449
5.3567,422
5.3591,368
5.3616,314
5.3616,292
5.3616,309
5.3616,357
5.3616,407
5.3616,429
5.3728,413
5.3728,366
5.3728,311
5.3728,281
5.3728,290
5.3728,336
5.3728,395
5.3728,433
5.3906,432
5.3906,392
5.3906,333
5.3906,289
5.3906,281
5.3906,314
5.3906,372
5.3906,420
5.4044,434
5.4044,407
5.4044,356
5.4044,305
5.4044,286
5.4044,309
5.4044,364
5.4044,421
5.4218,452
5.4238,439
5.4238,392
5.4276,337
5.4296,303
5.4316,308
5.4316,351
5.4359,409
5.4359,447
5.4359,446
5.4407,408
5.4407,352
5.4407,306
5.4407,299
5.4407,332
5.4517,389
5.4517,437
5.4517,451
5.4517,424
5.4517,370
5.4517,317
5.4517,293
5.4517,308
5.4677,350
5.4698,391
5.4718,402
5.4738,367
5.4738,292
5.4776,208
5.4796,141
5.4796,112
5.4838,124
5.4856,161
5.4856,193
5.4856,195
5.4856,169
5.4856,135
5.4856,118
5.4969,148
5.5,234
5.5005,350
5.5005,446
5.5005,488
5.5005,470
5.5005,413
5.5005,350
5.5005,311
5.5157,316
5.5157,357
5.5157,406
5.5157,432
5.5157,420
5.5157,376
5.5157,323
5.5157,292
5.5317,301
5.5317,348
5.5317,407
5.5317,448
5.5317,449
5.5407,411
5.5407,356
5.5407,311
5.5477,302
5.5496,334
5.5496,391
5.5496,441
5.5496,457
5.5496,430
5.5496,378
5.5496,325
5.5637,302
5.5637,321
5.5637,372
5.5637,426
5.5637,454
5.5637,441
5.5637,393
5.5637,336
5.5637,300
5.581,303
5.5831,345
5.5856,402
5.5876,440
5.5896,438
5.5906,399
5.5936,341
5.5956,294
5.5956,284
5.5956,314
5.5956,370
5.5956,418
5.5956,433
5.5956,407
5.5956,353
5.6116,300
5.6136,277
5.6156,295
5.6156,346
5.6156,402
5.6156,431
5.6156,418
5.6156,372
5.6274,313
5.6294,278
5.6294,282
5.6294,324
5.6294,382
5.6294,422
5.6294,423
5.6407,384
5.6422,326
5.6456,279
5.6476,269
5.6496,300
5.6511,357
5.6535,407
5.6556,422
5.6574,395
5.6586,340
5.6586,286
5.6586,261
5.6586,278
5.6672,327
5.6672,383
5.6672,411
5.6672,397
5.6672,349
5.6672,290
5.6672,253
5.6672,257
5.6822,298
5.6822,356
5.6822,397
5.6822,399
5.6822,362
5.6822,302
5.6822,255
5.698,243
5.698,271
5.698,324
5.698,375
5.698,391
5.698,365
5.698,310
5.698,259
5.7137,235
5.7158,253
5.7178,302
5.7198,359
5.7218,388
5.7218,375
5.7218,327
5.7218,271
5.7295,235
5.7295,239
5.7295,281
5.7295,342
5.7295,388
5.7295,395
5.7409,365
5.7409,313
5.7454,273
5.7454,267
5.7454,301
5.7454,362
5.7454,417
5.7454,438
5.7454,417
5.7454,369
5.7613,319
5.7613,299
5.7613,319
5.7613,373
5.7613,431
5.7613,463
5.7613,454
5.7613,410
5.7772,356
5.7772,319
5.7772,324
5.7772,369
5.7772,428
5.7772,471
5.7772,475
5.7772,439
5.793,384
5.7958,338
5.7978,326
5.7996,357
5.7996,413
5.7996,463
5.7996,480
5.7996,457
5.8088,405
5.8088,353
5.8088,327
5.8088,344
5.8088,393
5.8088,448
5.8088,479
5.8088,469
5.8248,425
5.8263,370
5.8289,333
5.8289,336
5.8289,377
5.8289,433
5.8289,473
5.8393,476
5.8414,439
5.8414,384
5.8414,336
5.8414,325
5.8414,356
5.8414,410
5.8414,459
5.8414,476
5.8565,451
5.8565,398
5.8565,345
5.8565,319
5.8565,337
5.8565,387
5.8565,443
5.8565,473
5.8724,463
5.8724,418
5.8724,361
5.8724,323
5.8724,325
5.8724,366
5.8724,423
5.8724,465
5.8894,467
5.8894,429
5.8915,373
5.8915,324
5.8915,311
5.8915,341
5.8915,397
5.8915,447
5.9045,465
5.9045,441
5.9045,389
5.9111,333
5.9133,307
5.9151,322
5.9173,371
5.9184,426
5.9202,455
5.9234,444
5.9258,400
5.9258,343
5.9258,305
5.9258,308
5.9258,350
5.9258,408
5.9359,450
5.9359,454
5.9412,418
5.9412,362
5.9412,314
5.9412,301
5.9412,330
5.9412,386
5.9534,436
5.9547,453
5.9574,430
5.9591,377
5.9616,322
5.9634,295
5.9653,310
5.9672,359
5.9686,415
5.9686,446
5.9686,435
5.9686,390
5.9686,333
5.9686,296
5.9686,297
5.9829,338
5.9851,396
5.9871,438
5.9891,442
5.9908,408
5.9926,352
5.9926,304
5.9926,291
5.9989,319
5.9989,375
5.9989,426
5.9989,444
5.9989,420
5.9989,368
5.9989,313
5.9989,287
6.0151,301
6.0151,351
6.0191,408
6.0201,439
6.0201,430
6.0201,386
6.0201,329
6.0201,292
6.0311,293
6.0311,332
6.0311,390
6.0311,431
6.0311,434
6.0415,395
6.0415,335
6.0415,284
6.0474,269
6.0491,296
6.0491,352
6.0491,405
6.0491,426
6.0491,405
6.0491,355
6.0491,302
6.0632,277
6.0652,292
6.0652,342
6.0652,399
6.0652,431
6.0652,422
6.0652,379
6.0652,322
6.0792,283
6.0792,284
6.0792,323
6.0792,383
6.0792,429
6.0792,436
6.0792,405
6.0792,351
6.0951,305
6.0951,292
6.0981,319
6.1001,374
6.1001,425
6.1001,444
6.1001,422
6.1092,370
6.1111,315
6.1111,289
6.1111,304
6.1111,354
6.1111,411
6.1111,445
6.1111,438
6.1111,394
6.127,336
6.1291,297
6.1291,297
6.1291,336
6.1291,395
6.1291,439
6.1291,445
6.1291,407
6.1429,343
6.1429,283
6.1429,254
6.1429,261
6.1429,291
6.1429,314
6.1429,300
6.1429,243
6.1589,160
6.161,85
6.161,46
6.161,58
6.161,118
6.161,197
6.161,260
6.161,293
6.1755,303
6.1776,303
6.1796,307
6.1816,331
6.1836,379
6.1856,434
6.1873,468
6.1896,463
6.1896,418
6.1918,356
6.1918,301
6.1918,286
6.1998,315
6.1998,374
6.1998,430
6.1998,455
6.1998,437
6.1998,387
6.1998,333
6.1998,305
6.2158,319
6.2158,368
6.2158,424
6.2158,458
6.2158,452
6.2158,409
6.2158,351
6.2158,311
6.2317,309
6.2317,347
6.2317,404
6.2376,449
6.2376,455
6.2376,422
6.2417,367
6.2417,317
6.2477,302
6.2477,327
6.2477,383
6.2477,434
6.2477,455
6.2477,434
6.2477,383
6.2477,326
6.2637,296
6.2651,308
6.2676,356
6.2696,413
6.2716,446
6.2736,439
6.2736,395
6.2736,337
6.2797,295
6.2797,293
6.2797,331
6.2797,388
6.2797,432
6.2797,438
6.2797,405
6.2797,347
6.2954,295
6.2971,279
6.2996,303
6.2996,357
6.2996,409
6.2996,430
6.2996,411
6.2996,360
6.3115,304
6.3115,274
6.3115,285
6.3115,331
6.3115,388
6.3115,421
6.3115,414
6.3115,370
6.3274,310
6.3274,269
6.3274,266
6.3274,301
6.3274,358
6.3274,401
6.3274,408
6.3274,374
6.3435,316
6.3456,266
6.3456,248
6.3456,272
6.3456,324
6.3456,378
6.3456,399
6.3456,378
6.3592,324
6.3616,269
6.3636,239
6.3636,250
6.3636,295
6.3636,353
6.3636,387
6.3636,379
6.3752,334
6.3752,277
6.3752,236
6.3752,231
6.3752,267
6.3752,323
6.3752,369
6.3752,377
6.3912,343
6.3912,286
6.3912,237
6.3912,220
6.3912,244
6.3912,299
6.3912,355
6.3912,380
6.4072,364
6.4072,316
6.4072,264
6.4072,237
6.4072,251
6.4072,302
6.4072,365
6.4072,404
6.4233,403
6.4233,365
6.4233,310
6.4233,272
6.4233,271
6.4233,310
6.4233,371
6.4233,420
6.4394,433
6.4394,405
6.4423,353
6.4423,304
6.4423,290
6.4423,317
6.4423,374
6.4423,430
6.4554,455
6.4554,438
6.4554,389
6.4554,334
6.4554,305
6.4554,316
6.4554,364
6.4554,422
6.4714,457
6.4714,454
6.4714,413
6.4714,357
6.4714,315
6.4714,310
6.4714,347
6.4714,404
6.4872,449
6.4896,458
6.4904,426
6.4904,372
6.4904,321
6.4904,304
6.4904,328
6.4904,383
6.5034,435
6.5034,459
6.5034,440
6.5034,390
6.5034,333
6.5034,302
6.5034,312
6.5034,359
6.5194,417
6.5194,452
6.5194,447
6.5194,405
6.5194,348
6.5194,305
6.5194,300
6.5194,336
6.5354,392
6.5354,438
6.5354,447
6.5354,416
6.5423,361
6.5423,309
6.5423,291
6.5423,314
6.5515,368
6.5535,422
6.5556,446
6.5574,429
6.559,381
6.5616,325
6.5616,294
6.5616,304
6.5674,350
6.5674,405
6.5674,441
6.5674,436
6.5674,395
6.5674,337
6.5674,295
6.5674,291
6.5834,326
6.5852,385
6.5876,432
6.5896,442
6.5908,412
6.5908,357
6.5908,306
6.5908,289
6.5996,312
6.5996,366
6.5996,420
6.5996,444
6.5996,427
6.5996,378
6.5996,321
6.5996,291
6.6155,301
6.6178,348
6.6198,406
6.6216,443
6.6216,440
6.6216,399
6.6216,343
6.6216,300
6.6316,294
6.6316,329
6.6316,386
6.6316,434
6.6316,444
6.6316,415
6.6426,362
6.6426,311
6.6475,293
6.6475,315
6.6516,368
6.6516,421
6.6516,445
6.6516,428
6.6516,378
6.6516,321
6.6635,289
6.6635,298
6.6635,343
6.6635,402
6.6635,439
6.6635,436
6.6635,396
6.6635,339
6.6794,295
6.6812,289
6.6836,322
6.6856,379
6.6871,426
6.6896,436
6.6906,407
6.6931,352
6.6956,300
6.6976,279
6.6998,299
6.6998,351
6.6998,405
6.6998,428
6.708,411
6.7087,363
6.7087,306
6.7087,275
6.7087,285
6.7087,329
6.7087,386
6.7087,424
6.7239,420
6.7251,378
6.7276,317
6.7296,270
6.7316,260
6.7336,291
6.7356,347
6.7373,395
6.7396,408
6.7408,381
6.743,327
6.743,279
6.743,261
6.743,284
6.743,337
6.743,393
6.7555,419
6.7555,402
6.7555,354
6.7555,298
6.7555,267
6.7555,275
6.7555,320
6.7555,381
6.7715,420
6.7715,420
6.7715,382
6.7715,325
6.7715,284
6.7715,279
6.7715,313
6.7715,371
6.7876,419
6.7876,431
6.7876,402
6.7876,349
6.7876,298
6.7876,278
6.7876,300
6.7876,354
6.8035,409
6.8035,436
6.8035,421
6.8035,373
6.8035,316
6.8035,283
6.8035,290
6.8035,332
6.8195,389
6.8216,426
6.8236,424
6.8236,383
6.8276,319
6.8276,267
6.8276,247
6.8276,265
6.8354,302
6.8354,327
6.8391,314
6.8408,255
6.8438,173
6.8456,101
6.8476,69
6.8476,87
6.8514,146
6.8535,218
6.8556,268
6.8574,278
6.8591,266
6.8616,257
6.8636,271
6.8656,312
6.8676,375
6.8676,434
6.8676,466
6.8676,453
6.8676,401
6.8676,332
6.8676,280
6.8676,269
6.8837,300
6.8856,359
6.8856,410
6.8856,427
6.8856,402
6.8856,349
6.8856,297
6.8856,277
6.8997,297
6.8997,349
6.8997,405
6.8997,433
6.8997,419
6.8997,372
6.8997,316
6.8997,282
6.9157,288
6.9157,331
6.9157,390
6.9157,428
6.9157,427
6.9157,388
6.9157,330
6.9157,286
6.9317,278
6.9317,311
6.9317,368
6.9317,417
6.9317,432
6.9317,405
6.9434,351
6.9434,298
6.9476,275
6.9476,294
6.9516,346
6.9537,402
6.9552,429
6.9552,414
6.9552,366
6.9552,309
6.9636,274
6.9656,280
6.9656,322
6.9656,380
6.9656,419
6.9656,419
6.9656,381
6.9656,324
6.9796,279
6.9818,270
6.9838,301
6.9856,357
6.9856,404
6.9856,418
6.9856,391
6.9856,336
6.9956,285
6.9956,263
6.9956,281
6.9956,332
6.9956,388
6.9956,415
6.9956,402
6.9956,354
7.0115,297
7.0136,263
7.0156,267
7.0176,309
7.0196,367
7.0216,406
7.0236,406
7.0236,367
7.0275,308
7.0296,262
7.0296,251
7.0296,281
7.0296,336
7.0296,384
7.0296,398
7.0296,370
7.0436,313
7.0451,259
7.0451,234
7.0451,251
7.0451,299
7.0451,353
7.0451,381
7.0451,365
7.0595,315
7.0595,259
7.0595,223
7.0595,226
7.0595,267
7.0595,322
7.0595,363
7.0595,363
7.0752,322
7.0764,264
7.0796,217
7.0816,206
7.0816,236
7.0816,291
7.0816,344
7.0816,362
7.0912,337
7.0912,286
7.0912,236
7.0912,215
7.0912,236
7.0912,291
7.0912,354
7.0912,389
7.1072,382
7.1092,339
7.1111,287
7.1136,256
7.1156,264
7.1176,309
7.1196,373
7.1216,417
7.1233,422
7.1233,387
7.1233,333
7.1233,290
7.1233,282
7.1233,315
7.1233,374
7.1233,425
7.1391,443
7.1408,420
7.143,368
7.145,316
7.145,294
7.145,313
7.145,364
7.145,420
7.1552,450
7.1552,439
7.1552,394
7.1552,339
7.1552,304
7.1552,309
7.1552,353
7.1552,410
7.1714,451
7.1714,454
7.1714,418
7.1714,362
7.1714,316
7.1714,306
7.1714,337
7.1714,394
7.1872,443
7.1872,459
7.1872,434
7.1872,382
7.1872,328
7.1872,304
7.1872,321
7.1872,372
7.2035,427
7.2056,456
7.2056,444
7.2056,398
7.2056,343
7.2056,306
7.2056,309
7.2056,352
7.2195,410
7.2212,451
7.2231,453
7.2255,417
7.2276,360
7.2296,312
7.2316,301
7.2336,331
7.2356,386
7.2356,436
7.2396,452
7.2406,427
7.2417,375
7.2455,321
7.2455,295
7.2455,311
7.2517,362
7.2517,417
7.2517,447
7.2517,436
7.2517,391
7.2517,334
7.2517,297
7.2517,299
7.2678,339
7.2678,396
7.2716,437
7.2736,439
7.2736,403
7.2776,347
7.2776,300
7.2776,289
7.2837,319
7.2856,376
7.2856,425
7.2856,442
7.2856,418
7.2856,366
7.2856,312
7.2856,288
7.2997,304
7.2997,354
7.2997,409
7.2997,439
7.2997,427
7.2997,382
7.2997,325
7.2997,289
7.3157,291
7.3157,332
7.3157,390
7.3157,432
7.3157,436
7.3157,401
7.3157,345
7.3157,299
7.3317,287
7.3317,316
7.3317,373
7.3317,424
7.3317,442
7.3317,417
7.3317,365
7.3317,310
7.3455,285
7.3491,301
7.3516,350
7.3534,406
7.3556,438
7.3556,428
7.3556,384
7.3556,327
7.3636,290
7.3636,292
7.3636,332
7.3636,391
7.3636,433
7.3636,436
7.3636,401
7.3636,344
7.3796,296
7.3796,283
7.3796,310
7.3796,365
7.3796,415
7.3796,433
7.3796,409
7.3796,358
7.3956,303
7.397,278
7.3996,294
7.3996,343
7.3996,399
7.3996,429
7.3996,417
7.3996,369
7.4114,307
7.4136,267
7.4136,267
7.4136,306
7.4136,366
7.4136,411
7.4136,418
7.4136,386
7.4274,331
7.4274,285
7.4274,273
7.4274,301
7.4274,357
7.4274,408
7.4274,426
7.4274,403
7.4432,351
7.4432,296
7.4457,270
7.4457,285
7.4457,334
7.4457,393
7.4457,427
7.4457,419
7.4591,378
7.4616,323
7.4636,287
7.4656,289
7.4676,330
7.4676,389
7.4676,432
7.4676,438
7.4752,404
7.4776,349
7.4796,302
7.4816,289
7.4836,316
7.4856,372
7.4871,423
7.4871,442
7.4912,420
7.4938,370
7.4938,316
7.4974,290
7.4974,305
7.4974,355
7.4974,412
7.4974,442
7.5073,429
7.5079,376
7.5079,307
7.5079,254
7.5079,236
7.5079,253
7.5079,285
7.5079,300
7.5234,278
7.5253,222
7.5278,153
7.5298,102
7.5298,90
7.5298,128
7.5298,201
7.5298,276
7.5394,327
7.5394,348
7.5394,346
7.5394,333
7.5461,330
7.5461,352
7.5461,395
7.5461,438
7.5555,455
7.5555,433
7.5555,379
7.5555,315
7.5555,274
7.5555,276
7.5555,317
7.5555,378
7.5715,425
7.5715,434
7.5715,402
7.5715,347
7.5715,299
7.5715,284
7.5715,310
7.5715,366
7.5874,417
7.5874,437
7.5909,416
7.5936,365
7.5956,310
7.5956,283
7.5956,295
7.5956,342
7.6034,399
7.6056,430
7.6074,421
7.6091,378
7.6116,320
7.6116,281
7.6116,280
7.6116,318
7.6194,376
7.6216,419
7.6216,426
7.6216,393
7.6216,337
7.6216,287
7.6216,273
7.6216,299
7.6353,354
7.6353,405
7.6353,425
7.6353,404
7.6353,354
7.6353,298
7.6462,270
7.6462,282
7.6514,330
7.6514,388
7.6514,422
7.6514,414
7.6514,370
7.6514,311
7.6514,272
7.6514,271
7.6673,308
7.6696,366
7.6696,409
7.6696,414
7.6696,381
7.6696,324
7.6696,277
7.6696,262
7.6834,288
7.6834,341
7.6834,394
7.6834,414
7.6834,392
7.6834,339
7.6834,283
7.6834,253
7.6994,264
7.6994,310
7.6994,367
7.6994,400
7.6994,391
7.6994,346
7.6994,286
7.6994,246
7.7154,242
7.7176,278
7.7196,334
7.7216,378
7.7236,385
7.7236,351
7.7276,294
7.7276,244
7.7315,226
7.7336,249
7.7336,301
7.7336,353
7.7336,372
7.7336,350
7.7336,296
7.7336,240
7.7474,209
7.7492,219
7.7516,264
7.7534,319
7.7556,355
7.7574,347
7.759,303
7.7616,247
7.7636,207
7.7656,205
7.7678,244
7.7698,302
7.7718,350
7.7718,360
7.7749,330
7.7749,278
7.7749,234
7.7749,222
7.7835,251
7.7835,309
7.7835,368
7.7835,396
7.7835,381
7.7835,335
7.7835,285
7.7835,260
7.7996,275
7.7996,326
7.7996,388
7.7996,426
7.7996,424
7.7996,385
7.7996,332
7.7996,295
7.8155,296
7.8176,336
7.8196,397
7.8216,445
7.8216,456
7.8216,427
7.8216,375
7.8216,326
7.8314,309
7.8314,335
7.8314,389
7.8314,441
7.8314,463
7.8314,443
7.8314,394
7.8314,340
7.8474,312
7.8494,324
7.8513,373
7.8536,430
7.8558,464
7.8558,459
7.8558,418
7.8558,361
7.8634,318
7.8634,315
7.8634,352
7.8634,409
7.8634,454
7.8634,463
7.8634,432
7.8634,379
7.8794,330
7.8816,313
7.8836,338
7.8836,392
7.8836,446
7.8836,468
7.8836,450
7.8836,400
7.8956,346
7.8956,315
7.8956,327
7.8956,373
7.8956,429
7.8956,464
7.8956,460
7.8956,417
7.9115,362
7.9115,320
7.9115,317
7.9115,355
7.9115,411
7.9115,457
7.9115,466
7.9115,436
7.9275,383
7.9275,333
7.9275,315
7.9275,340
7.9275,394
7.9275,447
7.9275,469
7.9275,451
7.9436,401
7.9456,346
7.9462,314
7.9462,326
7.9462,373
7.9462,430
7.9546,465
7.9555,462
7.9596,421
7.961,366
7.963,324
7.9652,320
7.9669,357
7.9693,414
7.971,458
7.9727,467
7.9753,436
7.977,382
7.9793,331
7.9793,313
7.9793,337
7.9793,390
7.9793,443
7.9793,468
7.9913,452
7.9913,404
7.9913,351
7.9913,320
7.9913,330
7.9913,377
7.9913,434
7.9913,469
8.0072,464
8.0072,423
8.0072,367
8.0072,324
8.0072,319
8.0072,357
8.0072,413
8.0072,459
8.0234,469
8.0248,440
8.0276,386
8.0296,336
8.0316,317
8.0336,341
8.0336,394
8.0336,448
8.0394,471
8.0407,454
8.0436,405
8.0436,350
8.0464,317
8.0464,326
8.0464,372
8.0464,427
8.0554,463
8.0554,458
8.0554,417
8.0554,359
8.0554,314
8.0554,307
8.0554,341
8.0554,397
8.0715,443
8.0736,454
8.075,425
8.0776,371
8.0796,318
8.0816,299
8.0836,321
8.0856,373
8.0871,424
8.0871,446
8.0907,424
8.0936,371
8.0956,311
8.0976,278
8.0976,286
8.0976,332
8.1033,391
8.1056,430
8.1074,430
8.1091,392
8.1116,337
8.1136,297
8.1156,293
8.1176,328
8.1196,386
8.1196,432
8.1196,442
8.1196,412
8.1196,358
8.1196,307
8.1196,287
8.1196,309
8.1356,363
8.1356,417
8.1377,445
8.1409,432
8.1436,386
8.1449,331
8.1465,300
8.1465,308
8.1516,353
8.1534,409
8.1556,445
8.1574,441
8.159,400
8.1616,343
8.1636,298
8.1656,292
8.1676,325
8.1696,382
8.1696,428
8.1696,440
8.1696,410
8.1696,356
8.1696,306
8.1696,287
8.1835,309
8.1835,361
8.1855,412
8.1855,431
8.1855,405
8.1855,341
8.1855,267
8.1855,215
8.1995,199
8.1995,216
8.1995,244
8.1995,256
8.1995,232
8.1995,181
8.1995,122
8.1995,81
8.2154,86
8.2154,141
8.2196,222
8.2196,306
8.2196,370
8.2196,395
8.2196,381
8.2196,350
8.2314,333
8.2338,347
8.2358,384
8.2373,421
8.2373,431
8.2373,405
8.2373,351
8.2373,292
8.247,261
8.247,271
8.247,318
8.247,380
8.247,421
8.247,421
8.247,383
8.247,326
8.2629,283
8.2656,277
8.2656,309
8.2656,366
8.2656,414
8.2656,427
8.2656,399
8.2656,345
8.2788,292
8.2807,270
8.2836,290
8.2836,340
8.2836,395
8.2836,421
8.2836,405
8.2932,357
8.2956,300
8.2976,266
8.2996,272
8.3016,315
8.3034,373
8.3061,411
8.3079,410
8.3085,372
8.3085,314
8.3085,270
8.3085,263
8.3085,295
8.3085,351
8.3085,399
8.3238,412
8.3238,382
8.3258,326
8.3258,275
8.3258,253
8.3258,273
8.3352,324
8.337,379
8.3379,405
8.3404,389
8.3436,338
8.3456,281
8.3481,247
8.3496,253
8.3516,295
8.3534,354
8.3556,393
8.3574,392
8.3591,352
8.3616,295
8.3616,251
8.3616,242
8.3616,272
8.3616,327
8.3718,376
8.3718,389
8.3718,360
8.3718,303
8.3718,251
8.3718,229
8.3718,247
8.3718,297
8.3718,352
8.3898,380
8.3907,364
8.3936,314
8.3948,257
8.3948,223
8.3948,227
8.3948,268
8.3948,324
8.4048,365
8.4048,365
8.4048,323
8.4048,265
8.4048,219
8.4048,208
8.4048,237
8.4197,291
8.4197,340
8.4197,354
8.4197,323
8.4197,268
8.4197,214
8.4197,190
8.4197,207
8.4357,257
8.4357,311
8.4357,341
8.4357,326
8.4357,278
8.4357,222
8.4476,187
8.4476,193
8.4515,237
8.4515,296
8.4515,338
8.4515,342
8.4515,306
8.4515,254
8.4515,214
8.4515,210
8.4675,248
8.4675,309
8.4716,367
8.4716,387
8.4716,365
8.4716,313
8.4716,265
8.4716,246
8.4835,268
8.4856,322
8.4871,383
8.4896,414
8.4905,404
8.4936,360
8.4956,306
8.4976,274
8.4996,281
8.4996,324
8.4996,383
8.4996,424
8.4996,426
8.4996,389
8.4996,334
8.4996,291
8.5158,284
8.5158,317
8.5158,375
8.5158,424
8.5158,440
8.5158,414
8.5158,362
8.5158,309
8.5318,288
8.5318,307
8.5356,359
8.5371,415
8.5396,443
8.5396,431
8.5396,386
8.5396,330
8.5478,297
8.5498,303
8.5498,347
8.5498,405
8.5498,446
8.5498,447
8.5498,410
8.5498,355
8.5635,309
8.5635,300
8.5635,332
8.5635,390
8.5635,440
8.5635,456
8.5635,432
8.5635,381
8.5793,327
8.5816,303
8.5816,321
8.5816,373
8.5816,428
8.5816,456
8.5816,443
8.5816,396
8.5951,339
8.5971,302
8.5971,306
8.5971,349
8.5971,406
8.5971,447
8.5971,449
8.6088,413
8.6109,357
8.6109,312
8.6109,303
8.6109,334
8.6109,390
8.6109,439
8.6109,453
8.6109,427
8.627,373
8.627,321
8.627,298
8.627,317
8.627,370
8.627,426
8.627,455
8.627,444
8.6429,399
8.6429,343
8.648,306
8.648,310
8.648,352
8.648,409
8.648,451
8.648,454
8.6587,418
8.6587,364
8.6587,319
8.6587,309
8.6587,341
8.6587,397
8.6587,446
8.6587,462
8.6749,438
8.6749,386
8.6749,333
8.6749,310
8.6749,328
8.6749,379
8.6749,435
8.6749,465
8.6907,454
8.6907,408
8.6907,352
8.6907,314
8.6907,317
8.6907,361
8.6907,420
8.6907,462
8.7067,465
8.7091,429
8.7116,373
8.7136,327
8.7136,316
8.7136,348
8.7136,404
8.7136,456
8.723,473
8.7241,449
8.7241,397
8.7241,342
8.7241,315
8.7241,331
8.7241,381
8.7241,436
8.7389,467
8.7389,455
8.7389,408
8.7389,350
8.7389,311
8.7491,313
8.7516,356
8.7516,415
8.7549,456
8.7549,459
8.7549,422
8.7549,364
8.7549,314
8.7549,301
8.7549,329
8.7549,382
8.7708,428
8.7736,442
8.7736,415
8.7776,362
8.7796,307
8.7816,283
8.7836,300
8.7836,350
8.7869,407
8.7898,437
8.7908,427
8.7936,382
8.7936,325
8.7936,288
8.7936,290
8.7936,330
8.8029,389
8.8045,432
8.8084,435
8.809,399
8.8115,344
8.8115,299
8.8115,289
8.8115,321
8.8197,380
8.8197,434
8.8243,453
8.8243,431
8.8243,380
8.8243,326
8.8243,300
8.8243,316
8.8357,366
8.8357,423
8.8389,454
8.8415,445
8.8415,399
8.8435,343
8.8455,303
8.8485,304
8.8516,343
8.8516,399
8.8516,440
8.8574,444
8.8574,408
8.8616,351
8.8636,304
8.8656,292
8.8676,317
8.8696,366
8.8716,406
8.8736,409
8.8736,366
8.8776,289
8.8796,208
8.8816,149
8.8836,128
8.8836,143
8.8836,175
8.8836,196
8.8836,185
8.8836,151
8.8836,113
8.8836,101
8.8996,135
8.8996,224
8.8996,340
8.8996,435
8.8996,472
8.8996,452
8.8996,398
8.8996,343
8.9155,317
8.9155,333
8.9155,378
8.9155,421
8.9155,437
8.9155,414
8.9155,365
8.9155,315
8.9314,292
8.9338,311
8.9358,364
8.9358,421
8.9358,453
8.9358,444
8.9358,400
8.9358,343
8.9475,305
8.9492,307
8.9502,348
8.9502,406
8.9555,449
8.9569,455
8.9569,421
8.9569,366
8.9635,317
8.9635,303
8.9635,329
8.9635,383
8.9635,432
8.9736,450
8.9736,428
8.9736,377
8.9795,322
8.9818,296
8.9838,311
8.9856,361
8.9856,416
8.9856,448
8.9856,439
8.9856,394
8.9955,335
8.9976,295
8.9989,294
8.9989,331
8.9989,388
8.9989,429
8.9989,434
8.9989,400
9.0115,343
9.0115,294
9.0135,279
9.0155,305
9.0155,360
9.0155,411
9.0155,430
9.0155,407
9.0277,356
9.0296,300
9.0296,273
9.0296,286
9.0296,335
9.0296,392
9.0296,424
9.0296,415
9.0437,370
9.0456,310
9.0456,270
9.0489,268
9.0489,306
9.0489,363
9.0489,405
9.0489,409
9.0489,373
9.0618,314
9.0618,265
9.0618,249
9.0618,275
9.0618,328
9.0618,381
9.0618,402
9.0618,380
9.0758,326
9.0758,271
9.0758,242
9.0758,253
9.0758,298
9.0758,354
9.0758,386
9.0758,377
9.0921,331
9.0953,274
9.0976,233
9.0976,231
9.0976,268
9.0976,323
9.0976,368
9.0976,374
9.1091,338
9.1116,283
9.1136,235
9.1136,220
9.1136,246
9.1136,300
9.1136,353
9.1237,374
9.1237,353
9.1276,301
9.1276,249
9.1276,222
9.1276,237
9.1276,286
9.1276,347
9.1396,384
9.1407,380
9.1407,340
9.1407,287
9.1407,253
9.1495,257
9.1495,300
9.1495,364
9.1555,412
9.1555,423
9.1591,393
9.1616,339
9.1636,292
9.1656,278
9.1676,306
9.1696,362
9.1716,417
9.1736,440
9.1736,422
9.1736,373
9.1736,319
9.1736,291
9.1736,304
9.1736,354
9.1873,412
9.1873,449
9.1911,444
9.1929,403
9.1947,347
9.197,308
9.1997,307
9.1997,347
9.2034,405
9.2034,451
9.2034,458
9.2034,425
9.2034,371
9.2034,321
9.2034,305
9.2034,330
9.2191,385
9.2191,438
9.2191,460
9.2191,439
9.2191,389
9.2191,333
9.2191,304
9.2191,315
9.2351,364
9.2351,420
9.2351,454
9.2351,447
9.2351,405
9.2351,348
9.2351,306
9.2351,303
9.2511,342
9.2531,399
9.2531,444
9.2531,451
9.2531,418
9.2531,362
9.2531,311
9.2531,295
9.2671,319
9.2691,374
9.2691,427
9.2691,448
9.2691,427
9.2691,377
9.2691,321
9.2691,293
9.2831,306
9.2851,355
9.2871,412
9.2871,447
9.2871,442
9.2871,400
9.2871,343
9.2871,300
9.2991,296
9.2991,332
9.2991,391
9.2991,435
9.2991,444
9.2991,413
9.2991,359
9.2991,309
9.3161,293
9.3161,318
9.319,373
9.319,425
9.319,447
9.319,428
9.319,380
9.319,325
9.3311,296
9.3334,307
9.3334,355
9.3334,411
9.3334,445
9.3334,439
9.3429,397
9.3429,340
9.3429,299
9.3429,296
9.3511,333
9.3531,390
9.3531,436
9.3531,444
9.3591,413
9.3611,360
9.3631,310
9.3631,292
9.3671,317
9.3691,370
9.3691,422
9.3691,445
9.3756,428
9.3756,378
9.3756,321
9.3756,291
9.3831,302
9.3851,349
9.3851,408
9.3851,445
9.3851,441
9.3851,400
9.3851,343
9.3851,300
9.3991,297
9.3991,332
9.4028,390
9.4028,435
9.4028,446
9.4028,414
9.4028,360
9.4028,308
9.4153,290
9.4171,311
9.4191,364
9.4211,415
9.4231,438
9.4231,420
9.4271,371
9.4291,315
9.4313,285
9.4313,295
9.4313,340
9.4313,396
9.4313,431
9.4313,424
9.4313,381
9.4313,322
9.4471,279
9.4471,271
9.4502,305
9.4502,361
9.4502,407
9.4502,417
9.4502,389
9.4502,337
9.4632,289
9.4632,273
9.4632,299
9.4632,353
9.4632,406
9.4632,429
9.4632,410
9.4632,360
9.4791,303
9.4811,274
9.4831,284
9.4851,332
9.4871,391
9.4871,427
9.4871,424
9.4923,385
9.4951,329
9.4951,289
9.4982,285
9.4982,321
9.4982,381
9.4982,428
9.4982,440
9.4982,411
9.5116,358
9.5121,306
9.5121,288
9.5121,311
9.5121,366
9.5121,420
9.5121,444
9.5121,427
9.5273,380
9.5298,325
9.5298,295
9.5298,305
9.5298,352
9.5298,410
9.5298,447
9.5298,443
9.5435,402
9.5435,341
9.5435,290
9.5435,275
9.5503,297
9.5503,337
9.5503,363
9.5503,346
9.5594,282
9.5616,194
9.5634,112
9.5634,72
9.5634,87
9.5634,142
9.5634,210
9.5634,256
9.5754,265
9.5754,249
9.5754,239
9.5754,259
9.5754,311
9.5754,384
9.5754,452
9.5754,490
9.5913,480
9.5936,429
9.5936,362
9.5936,310
9.5936,299
9.5936,332
9.5936,390
9.5936,438
9.6072,451
9.6091,424
9.6116,373
9.6136,323
9.6136,305
9.6136,329
9.6136,382
9.6136,436
9.6234,461
9.625,445
9.6276,397
9.6296,343
9.6316,311
9.6336,318
9.6356,362
9.6372,417
9.6396,453
9.6396,449
9.6396,410
9.6396,353
9.6396,310
9.6396,304
9.6509,338
9.6509,395
9.6556,442
9.6573,454
9.6573,424
9.6573,371
9.6573,319
9.6573,299
9.6573,320
9.6573,374
9.6717,427
9.6736,452
9.6736,436
9.6776,386
9.6796,329
9.6816,296
9.6831,304
9.6856,349
9.6871,406
9.6871,444
9.6871,440
9.6871,400
9.6871,343
9.6871,297
9.6871,290
9.6871,323
9.7034,380
9.7034,427
9.7034,439
9.7034,410
9.7034,356
9.7034,304
9.7034,282
9.7034,302
9.7194,354
9.7218,407
9.7236,431
9.7254,413
9.7276,364
9.7296,306
9.7316,274
9.7336,282
9.7356,326
9.7378,383
9.7398,420
9.7406,418
9.7406,377
9.7406,318
9.7406,273
9.7406,265
9.7514,297
9.7514,353
9.7514,399
9.7514,410
9.7514,380
9.7514,322
9.7514,269
9.7514,247
9.7674,267
9.7674,318
9.7674,373
9.7674,398
9.7674,381
9.7674,329
9.7674,272
9.7674,238
9.7833,244
9.7833,287
9.7833,345
9.7833,383
9.7833,382
9.7833,341
9.7833,283
9.7833,239
9.7994,232
9.7994,266
9.7994,322
9.7994,374
9.7994,389
9.7994,362
9.7994,310
9.7994,262
9.8154,244
9.8154,267
9.8154,322
9.8154,382
9.8154,414
9.8154,403
9.8154,359
9.8154,305
9.8313,276
9.8313,286
9.8313,333
9.8313,394
9.8313,436
9.8313,437
9.8313,401
9.8313,347
9.8474,304
9.849,299
9.8516,335
9.8516,394
9.8516,443
9.8516,458
9.8516,432
9.8516,380
9.8634,329
9.865,309
9.865,331
9.8696,383
9.8716,439
9.8716,466
9.8751,452
9.8776,406
9.8796,352
9.8796,319
9.8831,326
9.8831,370
9.8831,427
9.8831,466
9.8912,467
9.8916,430
9.8916,375
9.8916,331
9.8916,323
9.8916,356
9.8916,412
9.8916,460
9.9074,473
9.909,447
9.909,394
9.909,343
9.909,321
9.909,342
9.909,395
9.909,450
9.9234,479
9.9234,466
9.9254,420
9.9254,365
9.9254,329
9.9254,335
9.9254,379
9.9254,436
9.9392,475
9.9392,475
9.9392,437
9.9392,381
9.9392,335
9.9392,327
9.9392,360
9.9519,415
9.9559,463
9.9575,477
9.9596,451
9.9612,398
9.9632,346
9.9651,322
9.967,342
9.9698,392
9.9711,444
9.9738,470
9.9757,455
9.9778,408
9.9783,352
9.9783,316
9.9783,322
9.9783,366
9.987,423
9.9892,462
9.9906,462
9.9931,424
9.9931,368
9.9931,321
9.9931,310
9.9931,343
10.003,400
10.003,448
10.003,464
10.003,438
10.003,385
10.003,331
10.003,307
10.003,325
10.019,377
10.019,432
10.019,460
10.019,448
10.019,403
10.019,347
10.019,311
10.019,316
10.0349,360
10.0349,417
10.0349,457
10.0349,457
10.0349,419
10.0349,363
10.0349,315
10.0349,306
10.051,337
10.0539,394
10.0556,443
10.0573,459
10.0573,435
10.0573,383
10.0573,330
10.0573,307
10.067,326
10.067,378
10.067,432
10.067,461
10.067,449
10.067,404
10.067,349
10.067,313
10.0829,318
10.0829,361
10.0829,417
10.0829,456
10.0829,456
10.0829,418
10.0829,360
10.0829,312
10.099,303
10.101,334
10.101,390
10.101,440
10.101,456
10.101,430
10.101,377
10.101,323
10.1149,299
10.1176,316
10.1196,366
10.1216,419
10.1216,445
10.1216,430
10.1216,380
10.1216,321
10.1309,286
10.1333,292
10.1351,335
10.1369,396
10.1387,438
10.1406,441
10.1425,405
10.1425,348
10.1469,302
10.1496,291
10.1511,321
10.1537,378
10.1551,428
10.1568,444
10.1588,420
10.1588,368
10.163,315
10.163,293
10.163,312
10.163,365
10.163,422
10.163,454
10.163,443
10.163,398
10.1788,341
10.1811,304
10.1831,308
10.1851,350
10.1867,407
10.1891,448
10.1891,450
10.1891,414
10.1948,358
10.1948,310
10.1948,299
10.1948,329
10.1948,385
10.1948,435
10.1948,451
10.1948,425
10.2109,373
10.2109,318
10.2109,293
10.2109,309
10.2109,357
10.2109,408
10.2109,429
10.2109,405
10.2271,343
10.2271,268
10.231,208
10.2331,182
10.2331,189
10.2331,211
10.2331,223
10.2331,207
10.2429,163
10.2451,107
10.2473,69
10.2491,74
10.2511,125
10.2531,214
10.2542,314
10.2542,390
10.2595,409
10.2595,383
10.2595,339
10.2595,311
10.2595,318
10.2595,355
10.2595,400
10.2595,422
10.2757,407
10.2776,361
10.2796,305
10.2816,272
10.2836,278
10.2856,321
10.2876,383
10.2896,427
10.2904,432
10.2931,397
10.2956,341
10.2976,293
10.2976,280
10.2976,309
10.2976,365
10.2976,416
10.3067,433
10.3093,409
10.3093,357
10.3093,301
10.3093,275
10.3093,291
10.3093,339
10.3093,394
10.323,425
10.323,415
10.323,369
10.323,312
10.323,275
10.323,275
10.323,314
10.3364,372
10.3395,413
10.3395,415
10.3395,378
10.3395,320
10.3395,273
10.3395,260
10.3395,288
10.3395,343
10.3545,393
10.3545,411
10.3545,386
10.3545,331
10.3545,277
10.3545,250
10.3545,265
10.3545,313
10.3708,369
10.3728,401
10.3738,392
10.3759,346
10.3779,288
10.3779,250
10.3779,250
10.3779,289
10.3865,346
10.3884,390
10.3884,394
10.3936,358
10.3956,300
10.3976,254
10.3996,241
10.4016,269
10.4034,322
10.4056,375
10.4091,394
10.4091,370
10.4116,316
10.4136,262
10.4136,235
10.4136,248
10.4194,296
10.4218,353
10.4236,384
10.425,374
10.4276,327
10.4276,270
10.4276,231
10.4276,231
10.4354,269
10.4354,325
10.4354,369
10.4354,374
10.4354,337
10.4354,280
10.4354,232
10.4354,217
10.4514,244
10.4534,296
10.4546,347
10.4546,365
10.4546,340
10.4546,286
10.4546,231
10.4546,203
10.4674,216
10.4674,264
10.4674,320
10.4674,354
10.4674,345
10.4674,299
10.4674,244
10.4674,207
10.4833,209
10.4852,250
10.4872,309
10.4872,358
10.4872,367
10.4872,335
10.4872,283
10.4872,239
10.4996,230
10.4996,262
10.4996,321
10.4996,380
10.4996,404
10.4996,387
10.4996,338
10.4996,287
10.5155,263
10.5171,280
10.5196,331
10.5216,391
10.5236,426
10.5236,420
10.5236,379
10.5236,324
10.5313,288
10.5336,290
10.5356,332
10.5371,393
10.5396,438
10.5407,445
10.5407,413
10.5407,358
10.5475,310
10.5475,296
10.5475,324
10.5475,380
10.5549,434
10.5549,455
10.5549,435
10.5549,385
10.5635,331
10.5635,305
10.5635,319
10.5635,370
10.5635,426
10.5635,459
10.5635,452
10.5635,411
10.5793,355
10.5816,315
10.5835,316
10.5835,356
10.5835,412
10.5835,456
10.5835,460
10.5835,425
10.5956,369
10.5956,319
10.5956,304
10.5956,331
10.5956,386
10.5956,438
10.5956,458
10.5956,437
10.6116,385
10.6116,330
10.6116,302
10.6116,316
10.6116,365
10.6116,422
10.6116,455
10.6116,446
10.6276,403
10.6276,347
10.6276,307
10.6276,306
10.6276,346
10.6276,403
10.6276,447
10.6276,453
10.6435,419
10.6456,364
10.6476,314
10.6496,299
10.6496,326
10.6496,381
10.6554,433
10.6554,454
10.6594,434
10.6616,384
10.6636,329
10.6656,302
10.6676,315
10.6696,364
10.6696,420
10.6696,453
10.6752,446
10.6773,404
10.6791,347
10.681,307
10.6829,306
10.6846,345
10.6863,403
10.6863,447
10.6911,454
10.6911,422
10.6911,366
10.6911,316
10.6911,301
10.6911,327
10.6911,381
10.6911,432
10.7073,453
10.7093,433
10.7093,383
10.7093,327
10.7093,299
10.7093,311
10.7093,360
10.7093,417
10.7252,451
10.7252,445
10.7252,403
10.7252,347
10.7252,306
10.7252,305
10.7252,343
10.7252,400
10.7391,445
10.7391,454
10.7431,422
10.7451,368
10.7471,318
10.7491,303
10.7511,329
10.7531,384
10.7556,437
10.7556,459
10.7556,440
10.7556,390
10.7556,335
10.7556,306
10.7556,317
10.7556,364
10.7711,420
10.7731,453
10.7731,445
10.7771,400
10.779,342
10.779,300
10.779,297
10.779,335
10.7872,393
10.7872,437
10.7872,444
10.7872,411
10.7872,355
10.7872,302
10.7872,284
10.7872,305
10.804,355
10.8046,403
10.8046,421
10.8046,400
10.8046,350
10.8046,295
10.8046,268
10.8046,281
10.8194,330
10.8194,389
10.8194,424
10.8194,419
10.8194,377
10.8194,320
10.8194,280
10.8194,278
10.8354,314
10.8354,373
10.8354,419
10.8354,428
10.8354,397
10.8354,342
10.8354,294
10.8354,280
10.8514,307
10.8514,363
10.8561,417
10.8561,442
10.8561,423
10.8561,374
10.8561,318
10.8561,289
10.8676,300
10.8676,347
10.8697,404
10.8736,438
10.8736,433
10.8776,391
10.8796,333
10.8816,292
10.8836,289
10.8836,326
10.8836,385
10.8836,432
10.8836,442
10.8836,411
10.8836,356
10.8836,305
10.8997,285
10.8997,303
10.8997,347
10.8997,387
10.8997,393
10.8997,356
10.8997,282
10.8997,202
10.9158,143
10.9158,124
10.9158,146
10.9158,192
10.9158,228
10.9158,229
10.9158,200
10.9158,162
10.9317,142
10.9334,166
10.9334,246
10.9376,354
10.9376,441
10.9376,474
10.9436,451
10.9456,392
10.9476,329
10.9496,297
10.9516,307
10.9534,352
10.956,401
10.9577,423
10.9586,405
10.9586,358
10.9586,305
10.9655,277
10.9655,290
10.9655,338
10.9655,397
10.9655,434
10.9655,430
10.9655,389
10.9655,331
10.9815,290
10.9815,287
10.9815,323
10.9815,382
10.9815,428
10.9815,437
10.9815,407
10.9815,351
10.9975,299
10.9996,280
10.9996,302
10.9996,355
10.9996,408
10.9996,432
10.9996,414
10.9996,366
11.0134,310
11.0134,279
11.0134,288
11.0134,333
11.0134,391
11.0134,426
11.0134,421
11.0134,379
11.0293,320
11.0293,279
11.0336,274
11.0356,308
11.0371,365
11.0396,411
11.0407,420
11.0436,389
11.0456,333
11.0476,282
11.0496,263
11.0496,286
11.0496,340
11.0496,395
11.0573,419
11.0573,402
11.0615,351
11.0615,295
11.0615,263
11.0615,272
11.0615,316
11.0615,375
11.0615,411
11.0615,407
11.0775,366
11.0775,308
11.0775,267
11.0775,261
11.0775,295
11.0775,352
11.0775,398
11.0775,408
11.0933,376
11.0956,319
11.0956,268
11.0956,248
11.0956,270
11.0956,321
11.0956,375
11.0956,400
11.1091,381
11.1111,329
11.1111,273
11.1111,240
11.1111,247
11.1111,289
11.1111,345
11.1111,381
11.1249,376
11.127,330
11.1291,271
11.1291,226
11.1291,217
11.1291,250
11.1291,305
11.1291,354
11.1407,365
11.1407,334
11.1407,279
11.1407,227
11.1407,206
11.1407,227
11.1407,279
11.1407,334
11.1566,363
11.1566,347
11.1566,298
11.1566,245
11.1566,213
11.1566,223
11.1566,269
11.1566,329
11.1723,372
11.1741,374
11.1741,337
11.1741,284
11.1741,246
11.1741,245
11.1741,284
11.188,345
11.1896,398
11.1904,415
11.1936,390
11.1945,339
11.1945,293
11.1945,276
11.1945,300
11.2037,356
11.2037,413
11.2037,441
11.2037,426
11.2037,380
11.2037,324
11.2037,294
11.2037,305
11.2198,353
11.2211,413
11.2236,453
11.2236,452
11.2236,413
11.2236,358
11.2236,314
11.2236,309
11.2357,344
11.2357,400
11.2357,447
11.2357,458
11.2357,430
11.2357,377
11.2357,325
11.2357,306
11.2518,328
11.253,381
11.253,436
11.2569,462
11.2569,447
11.2569,399
11.2569,344
11.2569,311
11.2678,320
11.2678,366
11.2678,423
11.2678,460
11.2678,458
11.2678,418
11.2678,362
11.2678,317
11.2837,310
11.2837,344
11.2837,400
11.2837,448
11.2837,460
11.2837,432
11.2837,379
11.2837,327
11.2997,307
11.2997,328
11.2997,381
11.2997,434
11.2997,459
11.2997,443
11.2997,394
11.2997,338
11.3157,304
11.3176,311
11.3196,356
11.3216,413
11.3236,452
11.3236,451
11.3276,412
11.3276,357
11.3317,312
11.3317,306
11.3317,339
11.3317,396
11.3317,444
11.3317,457
11.3317,429
11.3317,376
11.3476,325
11.3476,304
11.3516,325
11.3516,378
11.3516,433
11.3571,459
11.3571,445
11.3571,399
11.3637,343
11.3637,310
11.3637,317
11.3637,363
11.3637,420
11.3637,460
11.3637,460
11.3637,422
11.3796,367
11.3796,322
11.3796,315
11.3796,350
11.3796,405
11.3796,454
11.3796,467
11.3796,439
11.3956,384
11.3956,331
11.3956,309
11.3956,329
11.3956,380
11.3956,434
11.3956,461
11.3956,446
11.4115,399
11.4115,342
11.4115,307
11.4115,313
11.4115,357
11.4115,414
11.4115,453
11.4115,453
11.4276,415
11.4291,359
11.4316,312
11.4336,303
11.4356,335
11.4371,391
11.4371,438
11.4371,452
11.4435,425
11.4435,372
11.4435,320
11.4435,298
11.4435,317
11.4435,369
11.4435,422
11.4574,449
11.4594,434
11.4611,386
11.4611,328
11.4611,293
11.4611,297
11.4611,338
11.4611,395
11.4746,433
11.4746,431
11.4778,394
11.4798,337
11.4818,293
11.4838,285
11.4838,316
11.4838,371
11.4838,418
11.4911,431
11.4911,402
11.4911,346
11.4911,291
11.4994,266
11.5003,283
11.5003,333
11.5003,389
11.5003,417
11.5003,404
11.5003,358
11.5003,302
11.5156,269
11.5176,275
11.5176,319
11.5176,378
11.5176,419
11.5176,420
11.5176,383
11.5176,326
11.5315,282
11.5315,274
11.5315,306
11.5315,364
11.5315,415
11.5315,431
11.5315,406
11.5315,355
11.5475,303
11.5475,282
11.5475,303
11.5475,356
11.5475,412
11.5575,441
11.5575,428
11.5575,381
11.5636,323
11.5636,288
11.5636,291
11.5636,333
11.5636,391
11.5636,430
11.5636,431
11.5636,393
11.5796,336
11.5796,291
11.5796,282
11.5796,314
11.5796,372
11.5796,423
11.5796,438
11.5796,410
11.5955,353
11.5976,291
11.5976,255
11.5976,259
11.5976,291
11.5976,324
11.5976,329
11.5976,290
11.6115,217
11.6115,139
11.6115,90
11.6115,90
11.6115,135
11.6115,204
11.6115,264
11.6115,288
11.6274,278
11.6274,261
11.6274,265
11.6274,298
11.6274,357
11.6274,422
11.6274,468
11.6274,473
11.6431,433
11.6431,365
11.6431,299
11.6431,269
11.6431,283
11.6431,334
11.6431,393
11.6575,426
11.6591,418
11.6591,375
11.6636,319
11.6656,285
11.6676,289
11.6696,330
11.6716,388
11.6736,429
11.6752,431
11.6776,395
11.6796,340
11.6816,294
11.6836,283
11.6856,312
11.6871,368
11.6896,417
11.6907,432
11.6936,407
11.6958,354
11.6958,300
11.6958,277
11.6958,295
11.6958,346
11.6958,402
11.7066,431
11.7066,418
11.7066,372
11.7066,315
11.7066,280
11.7066,283
11.7066,324
11.7066,382
11.7225,423
11.7225,425
11.7225,388
11.7225,331
11.7225,285
11.7225,274
11.7225,303
11.7225,359
11.7384,408
11.7384,424
11.7384,398
11.7384,344
11.7384,290
11.7384,265
11.7384,281
11.7384,330
11.7545,385
11.7573,415
11.7581,404
11.7581,358
11.7581,300
11.7581,264
11.7581,267
11.7581,307
11.7704,365
11.7704,406
11.7704,407
11.7704,370
11.7704,311
11.7704,264
11.7704,251
11.7704,279
11.7871,333
11.7896,385
11.7906,401
11.7936,376
11.7956,321
11.7976,267
11.7996,241
11.7996,255
11.8032,303
11.8032,358
11.8032,389
11.8032,376
11.8032,327
11.8032,270
11.8032,232
11.818,233
11.818,271
11.818,327
11.818,369
11.818,371
11.8275,332
11.8295,274
11.8295,226
11.8315,211
11.8335,239
11.8355,292
11.8355,342
11.8355,358
11.8355,332
11.8355,278
11.8355,225
11.8494,200
11.8504,215
11.8526,265
11.8547,321
11.8582,355
11.8587,345
11.8607,300
11.8607,246
11.8654,211
11.8654,215
11.8654,259
11.8654,322
11.8654,371
11.8654,381
11.8755,351
11.8755,299
11.8813,257
11.8813,248
11.8813,280
11.8813,339
11.8813,394
11.8813,416
11.8813,396
11.8813,347
11.8971,296
11.899,273
11.899,291
11.899,344
11.899,403
11.899,437
11.9088,431
11.9088,389
11.9131,332
11.915,296
11.917,299
11.919,339
11.921,396
11.9232,438
11.9232,442
11.9232,407
11.9292,352
11.9306,306
11.9306,294
11.9306,324
11.9306,382
11.9306,434
11.9306,454
11.9306,432
11.9452,382
11.9452,328
11.9452,302
11.9452,317
11.9452,365
11.9452,420
11.9571,450
11.9591,441
11.9613,397
11.9613,341
11.9613,303
11.9613,305
11.9613,346
11.9613,404
11.9613,447
11.9613,453
11.9785,419
11.9789,365
11.9806,318
11.9837,305
11.985,333
11.9869,388
11.9889,439
11.9912,456
11.9931,433
11.9952,381
11.997,326
11.999,300
12.001,315
12.003,365
12.005,420
12.007,452
12.0091,443
12.0091,398
12.0091,342
12.0091,304
12.0091,306
12.0091,347
12.0091,405
12.0229,449
12.025,455
12.0276,421
12.0296,367
12.0316,318
12.0336,306
12.0356,334
12.0371,391
12.0391,443
12.0391,463
12.0391,441
12.0391,390
12.0391,336
12.0391,309
12.0391,324
12.0391,374
12.0549,430
12.0573,461
12.0584,452
12.0584,408
12.0584,351
12.0584,313
12.0584,313
12.0584,354
12.0709,411
12.0709,455
12.0709,461
12.0709,427
12.0709,373
12.0709,324
12.0709,309
12.0709,338
12.0869,393
12.0869,444
12.0869,464
12.0869,443
12.0869,393
12.0869,339
12.0869,312
12.0869,326
12.1029,376
12.1049,434
12.1069,467
12.1089,459
12.1089,416
12.1089,359
12.1089,318
12.1089,318
12.1189,358
12.1209,414
12.1209,457
12.1209,463
12.1209,430
12.1209,375
12.1209,327
12.1209,313
12.1349,341
12.1349,397
12.1349,448
12.1349,467
12.1349,446
12.1349,395
12.1349,340
12.1349,311
12.1509,325
12.1535,374
12.1558,428
12.1573,460
12.1591,451
12.1591,407
12.1591,350
12.1591,310
12.167,309
12.167,347
12.167,404
12.167,445
12.167,450
12.167,415
12.167,359
12.167,309
12.1829,294
12.1856,320
12.1871,374
12.1896,426
12.1896,446
12.1896,423
12.1896,372
12.1896,316
12.1989,288
12.1989,301
12.1989,348
12.1989,403
12.1989,435
12.1989,428
12.1989,387
12.1989,331
12.2149,293
12.217,294
12.217,333
12.217,391
12.217,436
12.217,443
12.217,410
12.217,357
12.2309,308
12.2309,294
12.2309,320
12.2309,376
12.2309,428
12.2309,450
12.2309,431
12.2309,382
12.247,329
12.247,303
12.2516,317
12.2516,367
12.2516,424
12.2516,458
12.2584,451
12.2584,408
12.2628,352
12.2628,311
12.2628,309
12.2628,347
12.2628,403
12.2628,448
12.2628,455
12.2628,423
12.2789,368
12.2789,318
12.2789,304
12.2789,330
12.2789,386
12.2789,438
12.2789,460
12.2789,440
12.295,389
12.297,330
12.2996,295
12.2996,296
12.2996,328
12.2996,368
12.2996,383
12.2996,352
12.3112,281
12.3138,197
12.3138,130
12.3138,107
12.3138,134
12.3138,190
12.3138,243
12.3138,267
12.327,255
12.327,224
12.327,207
12.327,236
12.327,309
12.327,401
12.327,473
12.327,499
12.3432,471
12.3456,407
12.3471,336
12.3471,292
12.3471,293
12.3471,334
12.3471,389
12.3471,425
12.3587,422
12.3587,383
12.3587,327
12.3587,290
12.3587,289
12.3587,326
12.3587,385
12.3587,429
12.3744,437
12.3778,404
12.3798,348
12.3818,297
12.3838,280
12.3838,304
12.3838,358
12.39,410
12.39,432
12.39,412
12.39,361
12.39,305
12.39,275
12.39,285
12.39,330
12.406,387
12.407,422
12.407,416
12.407,373
12.407,315
12.407,274
12.407,271
12.407,308
12.4217,366
12.4236,412
12.4236,421
12.4236,389
12.4236,332
12.4236,281
12.4236,263
12.4236,286
12.4236,339
12.4377,392
12.4377,415
12.4377,396
12.4377,346
12.4377,291
12.4377,261
12.4377,272
12.4537,317
12.4537,375
12.4537,410
12.4588,405
12.4588,363
12.4588,304
12.4588,263
12.4588,259
12.4698,294
12.4698,351
12.4736,396
12.4736,404
12.4736,372
12.4736,314
12.4736,264
12.4736,245
12.4857,267
12.4857,319
12.4857,374
12.4857,397
12.4857,378
12.4857,326
12.4857,272
12.4857,241
12.5017,250
12.5033,294
12.5033,350
12.5033,384
12.5033,377
12.5033,331
12.5033,272
12.5033,229
12.5177,224
12.519,258
12.5197,313
12.5248,361
12.5248,370
12.5276,336
12.5296,280
12.5316,229
12.5336,208
12.5356,230
12.5371,281
12.5396,334
12.541,358
12.5431,338
12.5456,286
12.5476,231
12.5496,198
12.5516,207
12.5533,251
12.5556,308
12.5573,346
12.5596,342
12.5616,301
12.5616,246
12.5616,206
12.5677,203
12.5698,242
12.5698,303
12.5698,357
12.5698,372
12.5698,347
12.5698,296
12.5698,251
12.5839,238
12.5839,265
12.5839,321
12.5839,380
12.5839,409
12.5839,396
12.5839,351
12.5839,299
12.6,271
12.6,283
12.6,331
12.6,390
12.6,428
12.6,426
12.6,387
12.6,332
12.6159,293
12.6159,292
12.6159,330
12.6159,389
12.6159,437
12.6159,448
12.6159,419
12.6159,367
12.6319,317
12.6319,300
12.6319,324
12.6319,377
12.6319,431
12.6319,457
12.6319,440
12.6319,392
12.6479,338
12.6496,307
12.6512,317
12.6512,365
12.6512,422
12.6512,460
12.6594,456
12.6594,416
12.6639,359
12.6656,315
12.6676,310
12.6696,345
12.6716,402
12.6736,448
12.6736,459
12.6736,429
12.6799,375
12.6816,323
12.6836,303
12.6856,325
12.6876,378
12.6896,430
12.6896,455
12.6896,439
12.6957,390
12.6957,334
12.6957,303
12.6957,311
12.6957,357
12.6957,414
12.6957,450
12.6957,447
12.7116,408
12.7116,353
12.7156,310
12.7176,305
12.7196,340
12.7196,396
12.7196,443
12.7196,456
12.7275,427
12.7296,373
12.7296,322
12.7296,302
12.7296,323
12.7296,377
12.7296,431
12.7296,456
12.7296,439
12.7435,390
12.7435,333
12.7435,300
12.7435,307
12.7435,350
12.7435,406
12.7435,442
12.7593,440
12.7593,401
12.7593,345
12.7593,303
12.7593,298
12.7593,334
12.7593,393
12.7593,440
12.7752,452
12.7776,424
12.7796,371
12.7816,319
12.7836,300
12.7856,322
12.7871,375
12.7896,428
12.7904,454
12.7936,437
12.7956,389
12.7976,333
12.7996,301
12.7996,309
12.7996,354
12.7996,411
12.807,447
12.8091,444
12.8091,404
12.8091,349
12.8091,306
12.8091,301
12.8091,336
12.8091,394
12.8228,443
12.8228,456
12.8228,427
12.8228,374
12.8228,321
12.8228,300
12.8228,321
12.8228,374
12.8389,426
12.8406,451
12.8436,435
12.8456,387
12.8476,330
12.8476,297
12.8476,303
12.8476,347
12.8548,404
12.8573,441
12.8593,440
12.8593,401
12.8593,344
12.8593,299
12.8593,291
12.8593,324
12.8709,382
12.8709,428
12.8709,440
12.8709,409
12.8709,354
12.8709,300
12.8709,280
12.8709,299
12.8869,352
12.8869,405
12.8869,430
12.8869,413
12.8869,364
12.8869,307
12.8869,275
12.8869,282
12.9029,327
12.9049,387
12.9049,426
12.9049,426
12.9049,388
12.9049,331
12.9049,288
12.9049,281
12.9189,315
12.9189,373
12.9236,421
12.9236,434
12.9236,406
12.9236,353
12.9236,302
12.9236,283
12.9349,307
12.9376,363
12.9376,419
12.9376,447
12.9376,433
12.9376,385
12.9376,327
12.9376,293
12.9509,299
12.9509,343
12.9509,400
12.9509,437
12.9586,436
12.9602,398
12.9602,341
12.9602,296
12.9671,288
12.9696,320
12.9696,377
12.9696,424
12.9696,437
12.9696,410
12.9696,357
12.9696,305
12.9829,282
12.9856,297
12.9856,337
12.9856,378
12.9856,386
12.9856,350
12.9856,275
12.9856,190
12.999,122
12.999,94
12.999,108
12.999,148
12.999,181
12.999,186
12.999,164
12.999,130
13.015,114
13.015,148
13.015,236
13.015,350
13.015,442
13.015,480
13.015,460
13.015,403
13.0309,340
13.0338,304
13.0338,311
13.0338,352
13.0338,402
13.0338,428
13.0338,415
13.0338,371
13.047,316
13.0488,284
13.0488,292
13.0488,336
13.0488,395
13.0488,435
13.0587,435
13.0621,397
13.0636,340
13.0656,295
13.0676,287
13.0696,318
13.0716,376
13.0736,425
13.0747,439
13.0776,412
13.0776,359
13.0776,305
13.0837,283
13.0858,302
13.0878,353
13.0898,407
13.0905,435
13.0905,421
13.0905,374
13.0905,318
13.0997,284
13.0997,288
13.0997,330
13.0997,388
13.0997,427
13.0997,426
13.0997,387
13.0997,329
13.1157,283
13.1157,273
13.1157,304
13.1157,361
13.1157,410
13.1157,425
13.1157,397
13.1157,343
13.1157,289
13.1318,266
13.1338,284
13.1338,333
13.1338,388
13.1338,414
13.1338,400
13.1338,352
13.1338,294
13.1477,258
13.1497,261
13.1517,302
13.1538,360
13.1538,399
13.1538,400
13.1616,362
13.1636,305
13.1653,259
13.1676,249
13.1696,279
13.1718,334
13.1731,383
13.1731,398
13.1731,371
13.1796,316
13.1796,263
13.1796,238
13.1796,255
13.1796,305
13.1796,362
13.1796,391
13.1796,378
13.1957,329
13.1957,273
13.1957,236
13.1957,239
13.1957,279
13.1957,335
13.1957,376
13.1957,377
13.1957,337
13.2136,280
13.2156,235
13.2176,224
13.2176,253
13.2176,307
13.2176,358
13.2176,374
13.2276,348
13.2276,294
13.2276,241
13.2276,216
13.2276,233
13.2276,283
13.2276,338
13.2276,370
13.2436,357
13.2436,309
13.2436,254
13.2436,220
13.2436,226
13.2436,270
13.2436,330
13.2436,375
13.2436,380
13.2618,346
13.2618,292
13.2618,249
13.2618,242
13.2618,277
13.2618,336
13.2618,392
13.2618,414
13.2758,393
13.2792,343
13.2811,293
13.2839,272
13.2856,291
13.2875,343
13.2894,401
13.2911,433
13.2936,423
13.2956,380
13.2976,325
13.2995,293
13.2995,299
13.2995,343
13.2995,402
13.3071,445
13.3071,447
13.3111,411
13.3131,357
13.3131,311
13.3131,301
13.3131,332
13.3131,389
13.325,439
13.325,455
13.325,430
13.325,378
13.325,325
13.325,301
13.325,318
13.325,369
13.339,425
13.339,455
13.3431,443
13.3451,398
13.3471,341
13.3491,304
13.3511,307
13.3531,349
13.3551,405
13.3571,447
13.3571,449
13.3619,414
13.3619,358
13.3619,311
13.3619,301
13.3619,330
13.3711,386
13.3711,435
13.3711,451
13.3711,426
13.3711,375
13.3711,321
13.3711,296
13.3711,313
13.3871,363
13.3871,418
13.3871,448
13.3871,437
13.3871,392
13.3871,335
13.3871,297
13.3871,298
13.4044,339
13.4044,396
13.4044,438
13.4044,441
13.4044,406
13.4044,350
13.4044,302
13.4044,291
13.4194,321
13.4218,377
13.4236,428
13.4254,447
13.4276,423
13.4296,372
13.4316,318
13.4336,294
13.4356,311
13.4356,363
13.4356,419
13.4356,449
13.4356,439
13.4356,396
13.4356,340
13.4356,302
13.4517,305
13.4517,347
13.4517,404
13.4517,446
13.4517,451
13.4517,416
13.4622,360
13.4622,312
13.4677,300
13.4696,329
13.4696,385
13.4696,436
13.4696,454
13.4696,432
13.4696,380
13.4696,326
13.4837,301
13.4837,317
13.4837,367
13.4837,423
13.4837,454
13.4837,443
13.4837,399
13.4837,342
13.4992,305
13.4998,307
13.4998,348
13.4998,405
13.4998,448
13.4998,452
13.4998,419
13.4998,364
13.5149,317
13.5149,304
13.5149,333
13.5149,388
13.5149,439
13.5149,458
13.5149,435
13.5149,384
13.5308,330
13.5336,303
13.5356,318
13.5372,368
13.5396,423
13.5396,454
13.5396,444
13.5396,398
13.5469,341
13.5469,303
13.5469,304
13.5469,344
13.5469,402
13.5469,444
13.5469,448
13.5469,412
13.5623,355
13.5623,305
13.5623,291
13.5623,317
13.5623,371
13.5623,419
13.5623,436
13.5781,411
13.5781,360
13.5806,306
13.5806,282
13.5806,298
13.5806,349
13.5806,406
13.5806,437
13.5936,427
13.5956,383
13.5976,324
13.5996,286
13.6016,287
13.6033,327
13.6056,386
13.6086,430
13.6086,435
13.6086,402
13.6086,347
13.6086,301
13.6086,289
13.6086,319
13.6086,377
13.6233,430
13.6233,451
13.6233,430
13.6233,380
13.6233,326
13.6233,300
13.6233,315
13.6233,364
13.6393,420
13.6393,452
13.6393,443
13.6393,399
13.6393,343
13.6393,304
13.6393,305
13.6393,345
13.6554,402
13.6573,445
13.6591,451
13.6591,417
13.6629,362
13.6629,312
13.6629,295
13.6629,315
13.6714,359
13.6736,397
13.6736,398
13.6736,354
13.6736,274
13.6736,188
13.6736,125
13.6736,106
13.6873,129
13.6892,174
13.6908,206
13.6908,207
13.6908,181
13.6908,147
13.6908,138
13.6908,182
13.7034,276
13.7034,386
13.7034,465
13.7034,488
13.7034,458
13.7034,397
13.7034,336
13.7034,308
13.7194,324
13.7194,372
13.7214,421
13.7243,441
13.7263,420
13.7283,371
13.7283,318
13.7283,292
13.7356,307
13.7356,357
13.7356,414
13.7356,449
13.7356,442
13.7356,400
13.7356,344
13.7356,305
13.7516,306
13.7516,345
13.7516,403
13.7516,446
13.7516,453
13.7516,419
13.7631,363
13.7631,313
13.7676,298
13.7676,323
13.7676,378
13.7676,428
13.7676,449
13.7676,429
13.7676,378
13.7676,322
13.7836,294
13.7856,307
13.7876,355
13.7896,410
13.7905,443
13.7936,435
13.7956,392
13.7976,334
13.7996,295
13.7996,293
13.7996,331
13.7996,388
13.7996,431
13.7996,437
13.7996,403
13.7996,347
13.8155,297
13.8176,282
13.8196,307
13.8216,362
13.8236,415
13.8236,435
13.8276,415
13.8296,364
13.8316,308
13.8316,279
13.8316,291
13.8316,338
13.8316,395
13.8316,428
13.8316,421
13.8316,377
13.8475,318
13.8498,278
13.8498,275
13.8498,311
13.8498,369
13.8498,413
13.8498,419
13.8498,386
13.8636,329
13.8636,280
13.8636,263
13.8636,286
13.8636,338
13.8636,390
13.8636,410
13.8636,389
13.8795,335
13.8795,279
13.8836,249
13.8856,259
13.8856,303
13.8856,360
13.8856,393
13.8856,385
13.8954,339
13.8954,281
13.8954,241
13.8954,237
13.8954,273
13.8954,327
13.8954,373
13.8954,380
13.9114,346
13.9138,290
13.9158,242
13.9178,224
13.9188,248
13.9188,301
13.9188,355
13.9188,377
13.9276,359
13.9276,309
13.9276,256
13.9276,229
13.9276,243
13.9276,292
13.9276,354
13.9276,393
13.9436,391
13.9436,353
13.9436,301
13.9436,266
13.9436,268
13.9436,309
13.9436,371
13.9436,419
13.9595,431
13.9612,403
13.9617,353
13.9638,306
13.9638,292
13.9638,320
13.9638,377
13.9638,433
13.9752,458
13.9776,442
13.9776,395
13.9776,342
13.9776,313
13.9776,325
13.9776,373
13.9776,430
13.9913,466
13.9928,462
13.9953,422
13.9973,367
13.9993,325
14.0011,322
14.003,360
14.005,416
14.0073,461
14.0094,470
14.0094,439
14.0094,384
14.0094,334
14.0094,315
14.0094,339
14.0094,393
14.0231,445
14.0231,468
14.0231,450
14.0231,400
14.0231,345
14.0231,314
14.0231,325
14.0231,371
14.0394,428
14.0394,462
14.043,455
14.0456,414
14.0476,358
14.0476,315
14.0476,312
14.0476,348
14.0554,405
14.0573,451
14.0591,461
14.0616,430
14.0636,376
14.0653,326
14.0653,307
14.0653,330
14.0715,383
14.0715,436
14.0715,458
14.0715,441
14.0715,392
14.0715,337
14.0715,307
14.0715,318
14.0875,365
14.0875,421
14.0875,456
14.0875,452
14.0875,411
14.0875,355
14.0875,313
14.0875,309
14.1034,346
14.1048,402
14.1048,447
14.1091,456
14.1116,426
14.1136,371
14.1156,320
14.1176,302
14.1196,325
14.1216,379
14.1236,432
14.1247,455
14.1276,437
14.1296,388
14.1296,333
14.1296,302
14.1357,313
14.1357,361
14.1391,418
14.1391,454
14.1391,450
14.1391,409
14.1391,352
14.1391,311
14.1517,307
14.1517,342
14.1517,400
14.1517,446
14.1517,456
14.1517,427
14.1517,375
14.1643,325
14.1676,307
14.1696,332
14.1716,386
14.1736,440
14.1736,465
14.1736,447
14.1736,398
14.1736,342
14.1837,310
14.1837,318
14.1871,365
14.1896,421
14.1906,457
14.1906,453
14.1906,413
14.1906,357
14.1995,314
14.1995,310
14.1995,347
14.1995,403
14.1995,449
14.1995,460
14.1995,430
14.1995,375
14.2155,323
14.2155,304
14.2155,325
14.2155,377
14.2155,430
14.2155,454
14.2155,437
14.2155,391
14.2315,336
14.2315,305
14.2315,312
14.2315,357
14.2315,411
14.2315,446
14.2315,441
14.2315,398
14.2475,338
14.2496,291
14.2516,284
14.2533,317
14.2533,375
14.2533,422
14.2533,436
14.2621,409
14.2636,357
14.2647,307
14.267,290
14.2696,312
14.2696,365
14.2696,418
14.2696,442
14.2696,425
14.2797,377
14.2797,321
14.2797,290
14.2797,299
14.2797,345
14.2797,403
14.2797,441
14.2797,440
14.2797,402
14.297,347
14.297,305
14.297,299
14.297,332
14.297,389
14.297,434
14.297,446
14.3115,416
14.3136,362
14.3156,310
14.3176,289
14.3196,310
14.3216,363
14.3236,416
14.3236,442
14.3276,425
14.3296,377
14.3316,319
14.3336,287
14.3356,296
14.3372,340
14.3372,398
14.3372,433
14.3436,427
14.3436,380
14.3436,311
14.3436,254
14.3436,231
14.3436,243
14.3436,275
14.3436,294
14.3588,277
14.3588,222
14.3588,149
14.365,91
14.365,69
14.365,97
14.365,166
14.365,242
14.3748,297
14.3776,321
14.3776,323
14.3776,313
14.3776,309
14.3776,329
14.3776,374
14.3776,422
14.3908,446
14.3936,431
14.3936,380
14.3936,316
14.3936,271
14.3936,264
14.3936,300
14.3936,361
14.407,412
14.407,427
14.407,401
14.407,349
14.407,299
14.407,280
14.407,301
14.407,354
14.4228,408
14.425,435
14.4276,420
14.4296,373
14.4316,317
14.4336,284
14.4356,291
14.4372,335
14.4389,393
14.4389,431
14.4389,429
14.4389,389
14.4389,332
14.4389,289
14.4389,282
14.4389,314
14.4549,371
14.4573,419
14.4591,431
14.4616,402
14.4616,348
14.4654,295
14.4654,273
14.4654,292
14.4708,344
14.4708,398
14.4708,424
14.4708,409
14.4708,359
14.4708,303
14.4708,271
14.4708,277
14.4868,320
14.4868,379
14.4868,416
14.4868,414
14.4868,374
14.4868,315
14.4868,270
14.4868,262
14.5028,294
14.5028,350
14.5028,397
14.5028,409
14.5028,380
14.5028,323
14.5028,271
14.5028,249
14.5189,269
14.5216,319
14.5216,376
14.5216,402
14.5216,387
14.5216,338
14.5216,282
14.5216,247
14.5348,252
14.5348,295
14.5348,352
14.5348,391
14.5348,389
14.5348,348
14.5348,290
14.5348,246
14.5508,236
14.5533,267
14.5556,321
14.5573,369
14.5591,381
14.5616,352
14.5636,295
14.5656,242
14.5668,219
14.569,237
14.569,287
14.569,341
14.569,368
14.569,352
14.569,302
14.569,246
14.5829,211
14.5851,215
14.5851,256
14.5851,312
14.5851,353
14.5851,353
14.5851,313
14.5851,256
14.5989,212
14.5989,204
14.5989,237
14.5989,294
14.5989,346
14.5989,363
14.5989,338
14.5989,287
14.6149,239
14.6149,221
14.6149,244
14.6149,299
14.6149,360
14.6149,393
14.6149,383
14.6149,339
14.6308,287
14.6332,256
14.6332,264
14.6376,309
14.6376,370
14.6376,413
14.6436,416
14.6456,381
14.6476,327
14.6496,285
14.6516,279
14.6533,312
14.6556,370
14.6579,421
14.6584,437
14.6584,411
14.6584,359
14.6657,308
14.6676,286
14.6696,306
14.6716,358
14.6736,414
14.6736,444
14.6736,432
14.6736,387
14.6736,331
14.6736,297
14.6736,302
14.6736,345
14.6897,401
14.6897,440
14.6897,440
14.6897,403
14.6897,348
14.6897,303
14.6897,294
14.6897,325
14.7057,382
14.7057,432
14.7057,447
14.7057,421
14.7057,368
14.7057,315
14.7057,292
14.7057,312
14.7217,363
14.7217,418
14.7217,447
14.7217,435
14.7217,389
14.7217,333
14.7217,298
14.7217,302
14.7378,346
14.7378,403
14.7378,442
14.7422,442
14.7422,405
14.7422,348
14.7422,301
14.7422,292
14.7535,323
14.7558,380
14.7573,430
14.7591,446
14.7616,421
14.7636,369
14.7661,317
14.7676,294
14.7696,313
14.7696,364
14.7696,418
14.7696,447
14.7696,435
14.7696,389
14.7696,332
14.7696,296
14.7856,300
14.7878,342
14.7898,399
14.7906,440
14.7906,442
14.7906,406
14.7906,351
14.7906,305
14.8015,296
14.8015,327
14.8015,384
14.8015,432
14.8015,448
14.8015,422
14.8015,370
14.8015,317
14.8175,294
14.8175,312
14.8175,363
14.8175,418
14.8175,448
14.8175,436
14.8175,391
14.8175,335
14.8335,300
14.8335,305
14.8335,347
14.8335,405
14.8335,445
14.8335,448
14.8335,412
14.8335,357
14.8496,309
14.8496,299
14.8496,328
14.8496,384
14.8496,433
14.8496,449
14.8496,424
14.8496,372
14.8655,319
14.8666,295
14.8666,313
14.8666,363
14.8666,417
14.8666,446
14.8666,433
14.8666,387
14.8815,330
14.8815,294
14.8815,296
14.8815,337
14.8815,395
14.8815,434
14.8815,435
14.8815,398
14.8975,340
14.8975,294
14.8995,283
14.8995,313
14.8995,370
14.8995,420
14.8995,436
14.8995,410
14.9135,356
14.9156,300
14.9176,274
14.9196,288
14.9216,334
14.9236,387
14.9236,415
14.9236,403
14.9296,358
14.9316,302
14.9316,269
14.9316,275
14.9316,317
14.9316,378
14.9316,421
14.9316,425
14.9456,390
14.9476,333
14.9496,287
14.9516,276
14.9533,305
14.9533,362
14.9533,412
14.9533,429
14.9617,407
14.9633,355
14.9633,303
14.967,281
14.967,299
14.967,351
14.967,409
14.967,440
14.9772,430
14.9785,385
14.9785,329
14.9785,291
14.9785,293
14.9785,334
14.9785,391
14.9785,434
14.9935,437
14.9935,402
14.9935,347
14.9935,299
14.9935,287
14.9935,316
14.9935,372
14.9935,421
15.0094,438
15.0094,413
15.0094,361
15.0094,307
15.0094,279
15.0094,290
15.0094,330
15.0094,373
15.0252,389
15.0252,359
15.0252,290
15.0252,210
15.0252,146
15.0252,121
15.0252,140
15.0252,187
15.0412,229
15.0436,238
15.0456,216
15.0476,178
15.0496,153
15.0496,171
15.0496,243
15.0496,350
15.0573,442
15.0591,484
15.0616,468
15.0636,411
15.0656,345
15.0675,302
15.0675,304
15.0675,343
15.0733,394
15.075,424
15.0776,416
15.0776,375
15.0776,321
15.0776,288
15.0776,292
15.0776,334
15.0893,393
15.0893,436
15.0893,439
15.0893,404
15.0893,348
15.0893,300
15.0893,287
15.0893,315
15.1054,371
15.1073,421
15.1073,438
15.1073,414
15.1073,361
15.1073,305
15.1073,280
15.1073,294
15.1213,342
15.1213,398
15.1213,428
15.1213,417
15.1213,372
15.1213,314
15.1213,277
15.1213,277
15.1374,317
15.1396,375
15.1404,419
15.1436,424
15.1436,389
15.1436,332
15.1436,285
15.1436,271
15.1533,298
15.1533,354
15.1533,405
15.1533,424
15.1533,401
15.1533,349
15.1533,293
15.1677,266
15.1694,279
15.1709,326
15.1709,382
15.1751,414
15.1776,403
15.1796,358
15.1796,301
15.1836,263
15.1856,263
15.1871,302
15.1896,361
15.1896,404
15.1931,410
15.1956,375
15.1956,317
15.1956,269
15.2014,255
15.2014,281
15.2056,334
15.2056,386
15.2056,403
15.2056,379
15.2056,324
15.2056,269
15.2174,241
15.2174,253
15.2174,299
15.2174,355
15.2174,386
15.2174,376
15.2174,328
15.2174,270
15.2334,230
15.2334,228
15.2376,264
15.2376,318
15.2376,362
15.2376,366
15.2376,329
15.2376,273
15.2494,225
15.2494,210
15.2494,234
15.2494,287
15.2494,338
15.2494,358
15.2494,335
15.2494,282
15.2654,228
15.2676,200
15.2696,213
15.2706,260
15.2706,317
15.2706,352
15.2706,344
15.2706,301
15.2816,245
15.2816,208
15.2836,209
15.2836,251
15.2836,312
15.2836,361
15.2836,372
15.2836,341
15.2976,289
15.2976,246
15.2976,235
15.2976,265
15.2976,323
15.2976,381
15.2976,405
15.2976,387
15.3136,339
15.3158,289
15.3178,264
15.3198,281
15.3218,332
15.3218,392
15.3218,428
15.3218,425
15.3297,384
15.3297,329
15.3297,292
15.3297,292
15.3297,331
15.3297,390
15.3297,435
15.3297,443
15.3458,411
15.3458,357
15.3458,309
15.3458,296
15.3458,324
15.3458,380
15.3458,433
15.3458,455
15.3616,434
15.3616,384
15.3616,329
15.3616,301
15.3684,314
15.3684,364
15.3684,420
15.3684,453
15.3776,447
15.3776,405
15.3776,350
15.3776,311
15.3776,311
15.3776,349
15.3776,406
15.3776,450
15.3935,457
15.3956,423
15.3976,368
15.3996,318
15.3996,303
15.3996,328
15.3996,382
15.3996,433
15.4092,453
15.4092,432
15.4092,382
15.4092,327
15.4092,298
15.4092,311
15.4092,358
15.4092,414
15.4249,448
15.4249,440
15.4249,398
15.4249,341
15.4249,301
15.4249,299
15.4249,336
15.4249,394
15.4409,438
15.4409,446
15.4456,415
15.4465,361
15.4496,313
15.4496,298
15.4496,323
15.4496,379
15.457,432
15.4591,454
15.4616,434
15.4636,385
15.4656,331
15.4676,302
15.4701,314
15.4716,363
15.4733,420
15.4733,455
15.4733,451
15.4733,409
15.4733,354
15.4733,312
15.4733,310
15.4733,348
15.4893,405
15.4904,450
15.4936,459
15.4936,427
15.4936,374
15.4994,323
15.4994,307
15.4994,331
15.5058,384
15.5063,436
15.5063,456
15.5063,437
15.5063,387
15.5063,333
15.5063,305
15.5063,316
15.5214,364
15.5236,421
15.5236,456
15.5276,451
15.5296,410
15.5316,354
15.5336,313
15.5356,311
15.5371,349
15.5371,407
15.5371,452
15.5371,461
15.5371,430
15.5371,376
15.5371,327
15.5371,310
15.5533,336
15.5556,390
15.5556,443
15.5556,465
15.5556,446
15.5556,397
15.5556,342
15.5556,311
15.5699,321
15.5716,367
15.5716,421
15.5716,455
15.5716,449
15.5716,407
15.5716,352
15.5716,310
15.5854,307
15.5878,343
15.5898,398
15.5906,440
15.5906,448
15.5906,415
15.5906,358
15.5906,305
15.6015,286
15.6015,307
15.6015,361
15.6015,414
15.6015,438
15.6015,422
15.6015,375
15.6015,321
15.6175,293
15.6196,305
15.6196,352
15.6196,408
15.6196,444
15.6196,439
15.6196,397
15.6196,340
15.6334,299
15.6334,296
15.6334,331
15.6334,389
15.6334,435
15.6334,446
15.6334,417
15.6334,365
15.6494,316
15.6494,301
15.6494,326
15.6494,381
15.6494,434
15.6494,457
15.6494,439
15.6494,390
15.6654,334
15.6654,304
15.6654,313
15.6702,358
15.6702,413
15.6702,447
15.6702,442
15.6702,400
15.6813,343
15.6836,301
15.6856,297
15.6856,333
15.6856,389
15.6856,434
15.6856,442
15.6856,407
15.6984,345
15.6991,283
15.6991,251
15.6991,257
15.6991,289
15.6991,318
15.709,315
15.7116,270
15.7136,196
15.7156,123
15.7176,84
15.7196,92
15.7216,143
15.7236,215
15.7246,274
15.7276,297
15.7276,292
15.7276,284
15.7333,291
15.735,320
15.7371,372
15.7396,429
15.7396,466
15.7396,461
15.7396,415
15.7396,348
15.7494,288
15.7494,266
15.7494,287
15.7494,342
15.7494,398
15.7494,425
15.7494,410
15.7494,364
15.7654,309
15.7654,280
15.7654,289
15.7701,335
15.7701,392
15.7701,430
15.7701,427
15.7701,387
15.7813,330
15.7813,288
15.7813,282
15.7813,316
15.7813,373
15.7813,419
15.7813,430
15.7813,401
15.7974,347
15.7996,295
15.7996,277
15.7996,299
15.7996,352
15.7996,404
15.7996,428
15.7996,410
15.8134,361
15.8156,304
15.8156,273
15.8156,280
15.8156,324
15.8156,381
15.8156,417
15.8156,413
15.8296,372
15.8296,314
15.8336,272
15.8356,266
15.8376,300
15.8396,355
15.8406,401
15.8436,411
15.8456,380
15.8456,324
15.8456,273
15.8456,252
15.8456,273
15.8456,325
15.8456,379
15.8456,404
15.8616,388
15.8636,337
15.8656,280
15.8676,247
15.8676,253
15.8702,296
15.8702,352
15.8702,389
15.8776,387
15.8792,347
15.8792,290
15.8792,247
15.8792,240
15.8792,273
15.8792,328
15.8792,376
15.8935,386
15.8935,357
15.8935,301
15.8935,250
15.8935,228
15.8935,247
15.8935,296
15.8935,350
15.9092,375
15.9092,357
15.9092,305
15.9092,247
15.9092,212
15.9092,217
15.9092,259
15.9092,313
15.9252,352
15.9252,349
15.9252,307
15.9252,250
15.9252,206
15.9252,198
15.9252,229
15.9252,284
15.9413,332
15.9432,344
15.9451,314
15.9472,261
15.9472,210
15.9472,189
15.9472,210
15.9472,262
15.9571,316
15.9571,346
15.9571,332
15.9633,286
15.9633,235
15.9633,205
15.9633,216
15.9704,264
15.9734,326
15.9734,371
15.9734,375
15.9734,341
15.9734,290
15.9734,252
15.9734,251
15.9734,288
15.9894,349
15.9894,401
15.9894,418
15.9894,392
15.9894,342
15.9894,294
15.9894,277
15.9894,300
16.0054,356
16.0071,413
16.0095,440
16.0107,426
16.0129,379
16.0152,322
16.0174,290
16.0189,297
16.021,343
16.021,402
16.021,441
16.021,441
16.021,402
16.021,346
16.021,301
16.021,293
16.0368,326
16.0368,384
16.0368,432
16.0368,447
16.0368,421
16.0368,369
16.0368,318
16.0368,298
16.0526,318
16.0526,372
16.0526,426
16.0526,453
16.0526,439
16.0526,392
16.0526,336
16.0526,303
16.0684,311
16.0705,356
16.0705,412
16.0705,451
16.0705,450
16.0705,412
16.0705,357
16.0705,312
16.0851,304
16.0876,337
16.0896,393
16.0903,441
16.0936,455
16.0956,429
16.0976,377
16.0976,324
16.1002,303
16.1023,323
16.1043,375
16.1063,429
16.1083,457
16.1104,443
16.1124,396
16.1144,341
16.1161,307
16.1188,313
16.1211,356
16.1211,413
16.1254,451
16.1254,451
16.1254,413
16.132,357
16.132,312
16.132,304
16.132,337
16.132,392
16.132,439
16.132,453
16.132,425
16.1477,373
16.1477,321
16.1477,299
16.1477,318
16.1477,370
16.1477,424
16.1477,451
16.1477,437
16.1637,392
16.1637,336
16.1637,303
16.1637,309
16.1708,353
16.1708,411
16.1708,450
16.1708,451
16.1796,413
16.1796,359
16.1796,313
16.1796,305
16.1796,337
16.1796,394
16.1796,442
16.1796,458
16.1957,433
16.1972,381
16.1996,328
16.1996,306
16.1996,325
16.1996,376
16.1996,430
16.1996,457
16.2116,444
16.2136,399
16.2156,344
16.2156,309
16.2156,315
16.2156,359
16.2156,416
16.2156,456
16.2274,456
16.2293,420
16.2293,365
16.2293,320
16.2293,312
16.2293,345
16.2293,400
16.2293,448
16.2418,460
16.2458,433
16.2476,377
16.2498,322
16.2518,298
16.2533,316
16.2533,368
16.2578,423
16.2587,451
16.2587,439
16.2587,392
16.2587,334
16.2587,299
16.2587,302
16.2709,343
16.2709,397
16.2736,433
16.2736,431
16.2736,392
16.2736,336
16.2736,293
16.2736,286
16.2736,319
16.2894,377
16.2907,429
16.2907,446
16.2907,422
16.2907,371
16.2907,318
16.2907,295
16.2907,314
16.3054,366
16.3071,421
16.3091,449
16.3116,436
16.3136,389
16.3156,334
16.3176,300
16.3176,307
16.3214,352
16.3236,411
16.3236,454
16.3276,457
16.3296,420
16.3316,364
16.3336,317
16.3356,306
16.3376,337
16.3396,394
16.3405,442
16.3405,458
16.3405,433
16.3405,382
16.3405,329
16.3405,305
16.3534,324
16.3534,375
16.3534,430
16.3534,459
16.3534,445
16.3534,398
16.3534,341
16.3534,303
16.3695,304
16.3711,339
16.3736,386
16.3736,412
16.3776,394
16.3776,334
16.3776,251
16.3776,175
16.3857,133
16.3876,133
16.3876,167
16.3876,209
16.3876,227
16.3876,213
16.3876,181
16.3876,153
16.4017,159
16.4017,222
16.4017,325
16.4017,431
16.4017,491
16.4017,493
16.4017,447
16.4017,382
16.4177,330
16.4177,318
16.4177,348
16.4177,397
16.4177,435
16.4177,438
16.4177,405
16.4177,353
16.4337,310
16.4356,302
16.4372,335
16.4372,392
16.4372,441
16.4372,456
16.4372,431
16.4372,379
16.4497,325
16.4497,301
16.4533,318
16.4533,369
16.4533,424
16.4533,452
16.4533,440
16.4533,393
16.4657,336
16.4671,300
16.4696,303
16.4713,343
16.4713,400
16.4713,440
16.4713,443
16.4713,406
16.4817,350
16.4817,304
16.4817,293
16.4817,322
16.4817,378
16.4817,427
16.4817,443
16.4817,418
16.4975,364
16.499,308
16.499,282
16.499,297
16.499,345
16.499,399
16.499,428
16.499,417
16.5136,371
16.5156,315
16.5156,278
16.5156,281
16.5156,322
16.5156,379
16.5156,419
16.5156,421
16.5296,383
16.5296,324
16.5296,277
16.5296,265
16.5296,293
16.5296,349
16.5296,399
16.5296,417
16.5456,392
16.5456,338
16.5456,283
16.5456,257
16.5456,272
16.5456,320
16.5456,376
16.5456,407
16.5616,395
16.5638,349
16.5656,292
16.5656,255
16.5656,256
16.5714,294
16.5714,351
16.5714,391
16.5772,392
16.579,353
16.5811,294
16.5836,245
16.5836,231
16.5836,258
16.5836,311
16.5836,364
16.5935,381
16.5956,356
16.5976,300
16.5976,246
16.5976,218
16.5976,231
16.5976,278
16.5976,333
16.6092,365
16.6092,353
16.6092,307
16.6092,250
16.6092,213
16.6092,215
16.6092,254
16.6092,311
16.6252,355
16.6252,361
16.6252,324
16.6296,269
16.6296,224
16.6296,212
16.6296,242
16.6296,298
16.6412,354
16.643,377
16.645,358
16.645,311
16.645,263
16.645,241
16.645,259
16.645,310
16.6571,372
16.6571,408
16.6571,401
16.6571,360
16.6571,307
16.6571,274
16.6571,278
16.6717,322
16.6733,385
16.6733,430
16.6733,438
16.6733,405
16.6733,350
16.6733,303
16.6733,293
16.6733,322
16.6893,378
16.6893,429
16.6893,448
16.6893,426
16.6893,376
16.6893,324
16.6893,301
16.6893,320
16.7054,373
16.7072,429
16.7072,462
16.7072,454
16.7072,410
16.7072,354
16.7072,315
16.7072,317
16.7214,358
16.7214,415
16.7214,458
16.7214,462
16.7214,428
16.7214,373
16.7214,324
16.7214,311
16.7372,339
16.7372,395
16.7372,446
16.7372,465
16.7372,443
16.7372,392
16.7372,338
16.7372,310
16.7533,324
16.7548,374
16.758,431
16.7591,465
16.7616,457
16.7636,415
16.7656,359
16.767,319
16.7696,318
16.7721,357
16.7736,411
16.7747,453
16.7747,457
16.7747,424
16.7747,370
16.7747,323
16.7857,311
16.7857,339
16.7857,394
16.7857,445
16.7857,463
16.7857,441
16.7857,390
16.7857,335
16.8017,308
16.8017,321
16.8017,370
16.8017,426
16.8017,459
16.8017,451
16.8017,408
16.8017,353
16.8177,312
16.8198,311
16.8218,350
16.8236,407
16.825,450
16.825,455
16.825,421
16.825,366
16.8337,317
16.8356,304
16.8372,331
16.8396,388
16.8403,441
16.8403,462
16.8403,443
16.8403,393
16.8497,339
16.8497,311
16.8497,323
16.8497,373
16.8497,428
16.8497,461
16.8497,455
16.8497,414
16.8657,358
16.8657,318
16.8657,316
16.8657,355
16.8736,411
16.875,454
16.8776,460
16.8796,427
16.8816,375
16.8836,327
16.8856,313
16.8872,341
16.8896,396
16.8905,447
16.8905,466
16.8905,445
16.8975,395
16.8975,341
16.8975,313
16.8975,326
16.8975,374
16.8975,430
16.8975,462
16.8975,454
16.9134,410
16.9154,354
16.9154,312
16.9154,310
16.9154,348
16.9154,404
16.9154,447
16.9154,453
16.9294,420
16.9303,365
16.9336,315
16.9356,298
16.9376,322
16.9376,377
16.9376,428
16.9376,447
16.9456,423
16.9476,370
16.9496,313
16.9516,284
16.9533,297
16.9533,347
16.9533,406
16.9533,441
16.9615,435
16.9635,393
16.9651,335
16.9651,293
16.9651,289
16.9651,324
16.9723,382
16.9723,425
16.9775,433
16.9775,401
16.9775,347
16.9775,299
16.9775,286
16.9775,314
16.9775,371
16.9775,425
16.9936,448
16.9936,429
16.9972,381
16.9972,326
16.9972,298
16.9972,310
16.9972,357
16.9972,412
17.0092,446
17.0116,440
17.0136,398
17.0151,342
17.0176,302
17.0196,301
17.0196,338
17.0196,395
17.0253,440
17.0276,448
17.0276,416
17.0276,362
17.0276,312
17.0276,296
17.0276,321
17.0276,373
17.0412,419
17.0412,431
17.0412,399
17.0412,332
17.0412,259
17.0412,207
17.0412,190
17.0412,204
17.0571,227
17.0591,235
17.0616,214
17.0636,168
17.0636,115
17.0636,86
17.0636,101
17.0636,161
17.0726,253
17.075,350
17.0776,411
17.0796,419
17.0816,386
17.0816,343
17.0816,322
17.0816,338
17.0886,380
17.0907,421
17.0936,435
17.0936,412
17.0936,361
17.0936,307
17.0936,280
17.0936,295
17.1045,345
17.1045,405
17.1045,441
17.1045,436
17.1045,395
17.1045,338
17.1045,297
17.1045,294
17.1204,330
17.1204,388
17.1204,433
17.1204,440
17.1204,409
17.1204,355
17.1204,305
17.1204,289
17.1373,314
17.1398,368
17.1398,420
17.1398,443
17.1398,423
17.1398,373
17.1398,318
17.1398,288
17.1523,298
17.1523,343
17.1523,399
17.1523,432
17.1523,425
17.1523,383
17.1523,327
17.1523,287
17.1684,283
17.1696,317
17.173,373
17.173,416
17.173,424
17.173,394
17.173,340
17.173,293
17.1851,276
17.1876,300
17.1896,353
17.1903,405
17.1936,428
17.1956,410
17.1976,361
17.1996,304
17.1996,273
17.1996,282
17.1996,326
17.1996,384
17.1996,420
17.2121,415
17.2131,373
17.2156,314
17.2176,272
17.2196,266
17.2216,301
17.2236,358
17.2236,405
17.2281,415
17.2281,385
17.2315,329
17.2315,279
17.2315,262
17.2315,283
17.2315,335
17.2315,387
17.2315,408
17.2315,388
17.2476,336
17.2496,280
17.2516,247
17.2532,256
17.2532,300
17.2532,358
17.2532,393
17.2532,387
17.2637,343
17.2637,284
17.2676,242
17.2676,235
17.2676,268
17.2734,323
17.2734,369
17.2734,378
17.2796,345
17.2808,288
17.2814,238
17.2814,218
17.2814,240
17.2814,291
17.2814,345
17.2918,369
17.2952,349
17.2976,298
17.2996,244
17.3016,213
17.3016,223
17.3056,271
17.3072,331
17.3083,372
17.3083,371
17.3136,330
17.3156,275
17.3176,235
17.3196,233
17.3216,271
17.3236,332
17.3236,384
17.3276,398
17.3296,369
17.3316,316
17.3336,269
17.3356,253
17.3376,279
17.3416,335
17.3416,392
17.3416,419
17.3416,405
17.3416,358
17.3496,304
17.3496,273
17.3496,282
17.3554,328
17.3572,389
17.3591,428
17.3591,426
17.3591,386
17.3591,330
17.3591,288
17.3591,284
17.3714,321
17.3739,380
17.3739,429
17.3739,442
17.3739,413
17.3739,360
17.3739,309
17.3739,290
17.3874,312
17.389,365
17.3907,419
17.3936,443
17.3944,427
17.3944,380
17.3944,325
17.3944,294
17.4035,304
17.4035,350
17.4035,407
17.4035,445
17.4035,443
17.4035,403
17.4035,347
17.4035,304
17.4196,299
17.4196,333
17.4196,391
17.4196,438
17.4196,450
17.4196,422
17.4196,368
17.4196,315
17.4355,295
17.4376,316
17.4391,368
17.4391,421
17.4391,446
17.4391,429
17.4391,381
17.4391,325
17.4517,293
17.4533,300
17.4556,345
17.4572,402
17.4572,439
17.4572,436
17.4572,397
17.4572,340
17.4677,296
17.4677,290
17.4677,323
17.4741,381
17.4741,429
17.4741,441
17.4741,412
17.4741,357
17.4837,304
17.4856,285
17.4876,306
17.4876,360
17.4876,414
17.4876,440
17.4876,425
17.4876,377
17.5,321
17.5007,288
17.5007,296
17.5007,339
17.5007,397
17.5007,434
17.5007,431
17.5007,391
17.5157,334
17.5176,291
17.5176,285
17.5176,319
17.5176,376
17.5176,424
17.5176,436
17.5176,409
17.5317,356
17.5317,305
17.5317,286
17.5317,307
17.5317,361
17.5317,415
17.5317,440
17.5317,424
17.5473,376
17.5496,320
17.5496,287
17.5496,295
17.5496,339
17.5496,396
17.5496,434
17.5496,433
17.5633,395
17.5633,338
17.5633,295
17.5633,288
17.5633,321
17.5633,378
17.5742,425
17.5742,437
17.5791,409
17.581,354
17.581,301
17.581,279
17.581,299
17.581,351
17.581,405
17.581,432
17.595,416
17.595,367
17.595,308
17.595,272
17.595,276
17.595,318
17.595,377
17.595,417
17.611,417
17.611,379
17.611,322
17.611,278
17.611,270
17.611,302
17.611,360
17.611,408
17.6269,422
17.6269,394
17.6269,340
17.6269,288
17.6269,267
17.6269,287
17.6269,340
17.6269,396
17.6428,424
17.6456,412
17.6456,367
17.6456,313
17.6456,283
17.6456,291
17.6456,338
17.6456,398
17.6587,438
17.6587,438
17.6587,401
17.6587,346
17.6587,302
17.6587,295
17.6587,328
17.6742,385
17.6742,433
17.6742,447
17.6742,420
17.6742,367
17.6742,315
17.6742,295
17.6742,315
17.6742,368
17.6903,423
17.6936,450
17.6936,435
17.6936,384
17.6936,320
17.6936,274
17.6936,266
17.6936,291
17.7063,325
17.7083,337
17.7083,305
17.7083,234
17.7083,153
17.7083,95
17.7083,82
17.7083,117
17.7221,185
17.7221,253
17.7221,292
17.7221,300
17.7221,292
17.7221,287
17.7221,300
17.7379,340
17.7379,399
17.7379,451
17.7379,471
17.7379,447
17.7379,392
17.7379,328
17.7379,290
17.7537,295
17.755,339
17.7572,398
17.7591,439
17.7591,441
17.7591,406
17.7591,352
17.7591,308
17.7697,301
17.7697,334
17.7742,391
17.7742,440
17.7742,455
17.7742,428
17.7742,375
17.7742,323
17.7742,300
17.7857,319
17.7857,370
17.7857,424
17.7857,450
17.7857,437
17.7857,389
17.7857,332
17.8015,298
17.8015,302
17.8015,344
17.8015,402
17.8015,442
17.8015,442
17.8015,405
17.8015,349
17.8176,303
17.8189,292
17.8216,323
17.8246,380
17.8246,428
17.8276,444
17.8296,418
17.8316,365
17.8336,312
17.8356,290
17.8371,308
17.8396,360
17.8408,416
17.8436,444
17.8436,432
17.8436,386
17.8436,329
17.8517,293
17.8532,297
17.8532,341
17.8532,398
17.8532,438
17.8532,439
17.8532,401
17.8532,343
17.8677,297
17.8677,287
17.8708,317
17.8728,374
17.8743,422
17.8769,437
17.8789,410
17.8789,358
17.8836,304
17.8836,280
17.8836,297
17.8836,345
17.8836,399
17.8836,426
17.8836,412
17.8836,364
17.8997,306
17.8997,270
17.8997,274
17.8997,314
17.8997,373
17.8997,412
17.8997,413
17.8997,374
17.9158,317
17.9158,271
17.9158,260
17.9216,290
17.9236,344
17.9236,392
17.9236,407
17.9236,379
17.9317,324
17.9317,271
17.9356,247
17.9376,263
17.9376,313
17.9376,370
17.9376,399
17.9376,386
17.9376,338
17.9496,281
17.9516,245
17.9532,249
17.9556,290
17.9556,349
17.9556,392
17.9556,395
17.9637,360
17.9646,305
17.9671,263
17.9692,254
17.9713,288
17.9733,347
17.9752,401
17.9761,420
17.9761,398
17.9797,347
17.9797,297
17.9797,275
17.9797,294
17.9797,347
17.9797,405
17.9797,437
17.9954,427
17.9954,384
17.9954,328
17.9954,293
17.9954,297
17.9954,342
17.9954,402
17.9954,444
18.0114,449
18.0132,414
18.0153,360
18.0177,315
18.0192,305
18.0213,337
18.0233,394
18.0251,444
18.0267,460
18.028,436
18.028,384
18.028,331
18.028,306
18.028,323
18.028,373
18.028,427
18.0425,457
18.045,447
18.047,402
18.049,347
18.049,310
18.049,314
18.049,357
18.049,413
18.0582,454
18.0613,457
18.0636,420
18.0656,364
18.0676,317
18.0696,307
18.0716,337
18.074,394
18.0746,445
18.0775,462
18.0796,439
18.0816,387
18.0836,333
18.0856,308
18.0876,325
18.0896,375
18.0896,430
18.0896,461
18.0896,452
18.0896,407
18.0896,352
18.0896,315
18.0896,319
18.1056,360
18.1071,417
18.1091,459
18.1091,462
18.1091,426
18.1091,371
18.1091,324
18.1091,312
18.1217,342
18.1217,397
18.1217,447
18.1217,464
18.1217,440
18.1217,388
18.1217,334
18.1217,309
18.1377,326
18.1396,376
18.1403,432
18.1403,462
18.1403,451
18.1403,407
18.1403,351
18.1403,312
18.1536,315
18.1536,358
18.1536,416
18.1536,460
18.1536,464
18.1536,429
18.1536,373
18.1536,327
18.1697,315
18.1697,345
18.1717,401
18.1749,451
18.1749,468
18.1749,444
18.1749,392
18.1749,340
18.1856,315
18.1878,332
18.1898,383
18.1905,439
18.1905,470
18.1905,460
18.1905,414
18.1905,359
18.2015,320
18.2015,322
18.2015,363
18.2015,419
18.2015,461
18.2015,464
18.2015,430
18.2015,375
18.2175,327
18.2175,315
18.2175,343
18.2175,397
18.2175,446
18.2175,464
18.2175,440
18.2175,388
18.2335,334
18.2335,306
18.2335,320
18.2335,369
18.2335,423
18.2335,452
18.2335,442
18.2335,397
18.2495,338
18.2495,298
18.2536,299
18.2536,336
18.2536,391
18.2536,432
18.2536,435
18.2536,401
18.2655,347
18.2676,301
18.2676,289
18.2676,318
18.2676,374
18.2751,425
18.2751,444
18.2751,421
18.2813,369
18.2813,314
18.2813,289
18.2813,303
18.2813,352
18.2813,408
18.2813,439
18.2813,430
18.297,387
18.297,331
18.297,294
18.297,297
18.297,338
18.297,397
18.297,441
18.297,447
18.3128,414
18.3128,358
18.3128,310
18.3128,296
18.3128,323
18.3128,379
18.3128,430
18.3128,449
18.3288,426
18.3316,376
18.3336,321
18.3336,293
18.3336,308
18.3336,357
18.3336,413
18.3336,446
18.3449,438
18.3468,395
18.3468,339
18.3468,300
18.3468,296
18.3468,327
18.3582,374
18.3591,402
18.3616,388
18.3636,330
18.3656,249
18.3676,172
18.3696,125
18.3716,123
18.3736,157
18.3746,201
18.3756,223
18.3776,211
18.3796,176
18.3834,143
18.3851,142
18.3876,196
18.3896,294
18.3914,396
18.3936,457
18.3956,463
18.3956,422
18.3993,359
18.3993,307
18.3993,294
18.3993,323
18.3993,375
18.3993,416
18.3993,421
18.3993,389
18.4154,334
18.4154,289
18.4154,277
18.4154,306
18.4154,362
18.4154,415
18.4154,435
18.4154,415
18.4313,364
18.4336,310
18.4336,283
18.4336,297
18.4336,346
18.4336,402
18.4336,434
18.4336,425
18.4474,382
18.4483,324
18.4516,286
18.4532,286
18.4556,324
18.4556,382
18.4556,426
18.4556,432
18.4633,398
18.4633,341
18.4633,292
18.4633,277
18.4633,302
18.4633,357
18.4633,409
18.4757,429
18.4795,408
18.4816,358
18.4836,303
18.4856,274
18.4876,287
18.4876,334
18.4876,391
18.4876,424
18.4956,416
18.4976,373
18.4996,315
18.4996,276
18.4996,275
18.4996,312
18.4996,370
18.4996,415
18.5116,421
18.5136,388
18.5136,331
18.5136,283
18.5136,268
18.5136,293
18.5136,346
18.5136,397
18.5273,417
18.5273,394
18.5273,340
18.5273,285
18.5273,255
18.5273,267
18.5273,313
18.5273,370
18.5435,403
18.5458,395
18.5478,351
18.5478,294
18.5478,254
18.5478,252
18.5478,289
18.5478,345
18.5592,390
18.5592,394
18.5635,359
18.5635,299
18.5635,249
18.5635,231
18.5635,255
18.5635,306
18.5752,358
18.5778,377
18.5778,356
18.5778,303
18.5778,247
18.5778,217
18.5778,228
18.5778,272
18.5912,327
18.5912,362
18.5912,354
18.5912,308
18.5912,252
18.5912,211
18.5912,209
18.5912,247
18.6074,303
18.6074,351
18.6074,361
18.6074,329
18.6074,275
18.6074,228
18.6074,214
18.6074,240
18.6234,296
18.6251,354
18.6276,381
18.6276,365
18.6276,317
18.6276,267
18.6276,242
18.6276,257
18.6393,307
18.6393,368
18.6436,407
18.6436,405
18.6436,365
18.6436,310
18.6436,273
18.6436,272
18.6553,310
18.6553,370
18.6553,417
18.6553,426
18.6553,396
18.6553,342
18.6553,294
18.6553,280
18.6713,306
18.6736,362
18.6749,416
18.6781,439
18.6796,422
18.6816,372
18.6816,317
18.6816,288
18.6873,300
18.6873,347
18.6873,404
18.6873,438
18.6873,433
18.6873,391
18.6873,334
18.6873,293
18.7032,291
18.7056,327
18.7056,385
18.7056,429
18.7056,438
18.7056,406
18.7056,351
18.7056,301
18.7193,284
18.7193,308
18.7193,363
18.7193,416
18.7193,438
18.7193,420
18.7193,369
18.7193,313
18.7353,284
18.7353,294
18.7353,340
18.7353,398
18.7353,434
18.7353,429
18.7353,388
18.7353,332
18.7513,292
18.7525,289
18.7525,326
18.7525,384
18.7525,429
18.7525,437
18.7525,405
18.7525,350
18.7674,300
18.7696,283
18.7696,307
18.7696,361
18.7696,414
18.778,438
18.778,420
18.778,370
18.7833,315
18.7833,286
18.7833,296
18.7833,341
18.7833,398
18.7833,434
18.7833,428
18.7833,387
18.7994,329
18.7994,289
18.7994,286
18.7994,321
18.7994,378
18.7994,423
18.7994,432
18.7994,401
18.8154,346
18.8154,296
18.8154,279
18.8154,303
18.8154,356
18.8154,410
18.8154,434
18.8154,416
18.8312,367
18.8312,311
18.8312,282
18.8312,292
18.8312,338
18.8312,395
18.8312,431
18.8312,427
18.8474,386
18.8474,328
18.8474,287
18.8474,283
18.8474,318
18.8474,375
18.8474,420
18.8474,430
18.8634,399
18.8634,345
18.8634,295
18.8634,277
18.8634,300
18.8634,355
18.8634,410
18.878,434
18.8796,416
18.8813,367
18.8833,310
18.8848,278
18.8868,287
18.8868,330
18.8914,386
18.8936,421
18.8956,416
18.8976,375
18.8996,318
18.9016,278
18.9032,274
18.9056,309
18.9079,366
18.9084,412
18.9084,422
18.9084,390
18.9084,332
18.9084,280
18.9084,260
18.9084,282
18.9238,335
18.9238,392
18.9238,419
18.9238,403
18.9238,356
18.9238,302
18.9238,273
18.9238,283
18.9398,328
18.9398,387
18.9398,423
18.9398,419
18.9398,379
18.9398,322
18.9398,282
18.9398,278
18.9556,313
18.9556,372
18.9591,420
18.9616,433
18.9616,406
18.965,355
18.9655,307
18.9655,291
18.9714,315
18.9714,369
18.9714,424
18.9714,449
18.9783,434
18.9783,387
18.9783,331
18.9783,300
18.9874,310
18.9874,356
18.9874,413
18.9874,449
18.9874,446
18.9874,406
18.9874,350
18.9874,306
19.0033,301
19.0033,336
19.0072,393
19.0091,438
19.0116,448
19.0136,415
19.0156,354
19.0156,292
19.0194,258
19.0194,263
19.0214,293
19.0214,323
19.0214,320
19.0214,275
19.0214,201
19.0214,130
19.0352,92
19.0373,100
19.0393,153
19.0413,225
19.0413,284
19.0413,307
19.0413,305
19.0413,296
19.0514,294
19.0534,314
19.0558,361
19.0571,416
19.0571,453
19.0571,453
19.0571,413
19.0571,349
19.0675,292
19.0698,272
19.0698,294
19.0698,350
19.0698,407
19.0698,436
19.0782,423
19.0782,378
19.0835,323
19.0835,292
19.0835,301
19.0835,347
19.0835,404
19.0835,442
19.0835,441
19.0835,402
19.0993,346
19.0993,302
19.0993,295
19.0993,326
19.0993,384
19.0993,431
19.0993,443
19.0993,415
19.1155,361
19.1176,308
19.1196,288
19.1196,309
19.1196,361
19.1196,414
19.1196,439
19.1196,424
19.1314,376
19.1336,319
19.1356,286
19.1376,292
19.1396,335
19.1402,392
19.1402,428
19.1402,426
19.1474,387
19.1491,329
19.1491,285
19.1491,277
19.1491,309
19.1491,365
19.1491,411
19.1491,423
19.1632,394
19.1647,338
19.1647,287
19.1647,266
19.1647,285
19.1647,336
19.1647,391
19.1647,416
19.1788,401
19.1788,354
19.1788,296
19.1788,262
19.1788,268
19.1788,310
19.1788,367
19.1788,405
19.1947,402
19.197,363
19.1996,305
19.1996,261
19.1996,253
19.1996,285
19.1996,341
19.1996,389
19.211,401
19.211,372
