timestamp,ecg_value
0.0,183
0.0,135
0.0,127
0.002,163
0.002,223
0.002,276
0.002,289
0.002,257
0.002,197
0.002,141
0.002,119
0.002,145
0.002,203
0.004,265
0.004,295
0.004,279
0.004,227
0.004,166
0.004,131
0.004,143
0.004,194
0.004,259
0.006,302
0.006,301
0.006,257
0.006,196
0.006,151
0.006,146
0.006,188
0.006,255
0.006,312
0.006,330
0.006,304
0.006,250
0.0081,200
0.0081,185
0.0081,216
0.0081,280
0.0081,346
0.0081,379
0.0081,366
0.0081,317
0.0081,261
0.0081,230
0.0081,244
0.0101,297
0.0101,363
0.0101,405
0.0101,405
0.0101,362
0.0101,302
0.0101,257
0.0101,253
0.0101,292
0.0101,354
0.0101,403
0.0101,413
0.0101,377
0.0101,316
0.0101,258
0.0101,234
0.0101,257
0.0101,312
0.0101,368
0.0101,389
0.0101,366
0.0101,306
0.0101,242
0.0101,203
0.0101,209
0.0101,255
0.0101,313
0.0101,348
0.0101,337
0.0101,284
0.0101,215
0.0101,161
0.0101,148
0.0101,182
0.0101,241
0.0101,287
0.0101,293
0.0101,251
0.0101,181
0.0101,115
0.0101,84
0.0101,102
0.0101,154
0.0101,207
0.0101,229
0.0101,203
0.0101,141
0.0101,70
0.0101,28
0.0101,32
0.0101,78
0.0101,139
0.0101,177
0.0101,169
0.0101,118
0.0101,49
0.0101,27
0.0101,26
0.0101,33
0.0101,77
0.0101,119
0.0101,126
0.0101,89
0.0199,27
0.0199,26
0.0199,26
0.0199,26
0.0199,28
0.0199,57
0.0199,71
0.0199,49
0.0199,26
0.0219,26
0.0219,26
0.0219,26
0.0219,26
0.0219,26
0.0219,26
0.0219,26
0.0219,26
0.0219,26
0.0219,26
0.0219,26
0.0219,26
0.0219,26
0.0219,26
0.0219,26
0.0219,26
0.0219,26
0.0219,26
0.0219,26
0.0219,26
0.0263,26
0.0263,26
0.0263,26
0.0263,26
0.0263,26
0.0263,26
0.0263,26
0.0263,26
0.0263,26
0.0263,26
0.0263,26
0.0263,26
0.0263,26
0.0263,26
0.0263,26
0.0263,26
0.0283,26
0.0283,26
0.0283,26
0.0283,26
0.0283,26
0.0283,26
0.0283,26
0.0283,26
0.0283,26
0.0283,26
0.0283,26
0.0283,26
0.0283,26
0.0283,26
0.0283,26
0.0283,26
0.0283,26
0.0303,26
0.0303,26
0.0303,47
0.0303,56
0.0303,37
0.0303,27
0.0303,26
0.0303,26
0.0303,56
0.0303,119
0.0303,174
0.0303,188
0.0324,159
0.0324,100
0.0324,47
0.0324,28
0.0324,59
0.0324,124
0.0324,190
0.0324,220
0.0345,203
0.0345,148
0.0345,85
0.0345,52
0.036,64
0.036,120
0.036,189
0.036,232
0.036,229
0.036,182
0.036,117
0.0384,69
0.0384,65
0.0384,110
0.0384,180
0.0384,238
0.0384,255
0.0384,225
0.0405,168
0.0405,116
0.0414,103
0.0414,137
0.0414,202
0.0414,268
0.0434,298
0.0434,281
0.0434,228
0.0434,170
0.0434,141
0.0434,161
0.0434,221
0.0434,295
0.0455,343
0.0455,345
0.0455,305
0.0455,250
0.0455,212
0.0455,217
0.0455,268
0.0455,341
0.0455,403
0.0455,423
0.0455,398
0.0455,346
0.0455,301
0.0455,291
0.0475,329
0.0475,397
0.0475,468
0.0475,505
0.0475,495
0.0475,451
0.0475,400
0.0475,376
0.0475,398
0.0475,459
0.0475,531
0.0475,579
0.0475,584
0.0475,549
0.0475,495
0.0495,461
0.0495,466
0.0495,517
0.0495,590
0.0495,606
0.0495,606
0.0495,605
0.0495,597
0.0495,576
0.0495,575
0.0495,604
0.0495,607
0.0495,607
0.0495,607
0.0495,607
0.0515,608
0.0515,607
0.0515,608
0.0515,608
0.0515,608
0.0515,608
0.0515,608
0.0515,608
0.0515,608
0.0515,608
0.0515,607
0.0515,607
0.0515,608
0.0515,608
0.0515,608
0.0515,608
0.0515,608
0.0515,608
0.0515,608
0.0515,608
0.0515,608
0.0515,609
0.0515,609
0.0515,609
0.055,609
0.056,609
0.056,609
0.056,609
0.056,609
0.056,609
0.056,609
0.056,609
0.056,609
0.056,609
0.056,609
0.056,609
0.056,609
0.056,609
0.056,609
0.056,609
0.0599,609
0.0599,609
0.0599,609
0.0599,609
0.0599,609
0.0599,609
0.0599,609
0.0599,609
0.0599,608
0.0619,609
0.0619,609
0.0619,609
0.0619,609
0.0619,609
0.0619,609
0.0619,609
0.0619,609
0.0619,609
0.0619,609
0.0619,609
0.0619,609
0.0619,609
0.0619,609
0.0619,609
0.0619,609
0.0619,608
0.0667,608
0.0667,607
0.0667,606
0.0667,606
0.0667,607
0.0667,607
0.0667,607
0.0667,608
0.0667,607
0.0667,607
0.0667,606
0.0667,606
0.0682,607
0.0682,608
0.0682,608
0.0682,608
0.0682,608
0.0682,608
0.0682,608
0.0682,608
0.0682,608
0.0682,608
0.0682,609
0.0682,608
0.0682,608
0.0682,608
0.0682,608
0.0682,608
0.0682,608
0.0682,608
0.0682,608
0.0682,609
0.0711,609
0.0711,609
0.0711,608
0.0714,608
0.0714,608
0.0726,608
0.0726,609
0.0726,609
0.0726,609
0.0726,609
0.0726,609
0.0726,609
0.0726,608
0.0726,609
0.0726,609
0.0726,609
0.0726,609
0.0726,609
0.0726,609
0.0726,609
0.0726,609
0.0726,609
0.0726,609
0.0767,609
0.0767,609
0.0767,609
0.0767,609
0.0767,609
0.0767,609
0.0767,609
0.0767,609
0.0767,609
0.0767,609
0.0767,609
0.0767,609
0.0767,609
0.0767,609
0.0767,609
0.0767,610
0.0767,609
0.0767,609
0.0767,609
0.0767,609
0.0767,609
0.0767,609
0.0767,610
0.0767,609
0.0767,609
0.0767,608
0.0767,609
0.0767,609
0.0767,609
0.0767,609
0.0767,609
0.0767,609
0.0767,609
0.0767,609
0.0767,609
0.0767,609
0.0767,609
0.0767,609
0.0848,609
0.0848,609
0.0848,609
0.0848,609
0.0848,609
0.0848,609
0.0848,609
0.0848,609
0.0848,609
0.0848,609
0.0848,609
0.0848,609
0.0848,609
0.0848,609
0.0848,609
0.0848,609
0.0848,609
0.0848,609
0.0848,608
0.0848,608
0.0848,609
0.0848,608
0.0848,608
0.0848,608
0.0848,608
0.0848,608
0.0848,608
0.0848,608
0.0848,608
0.0897,608
0.0897,607
0.0903,607
0.0903,606
0.0903,598
0.0903,557
0.0903,525
0.0903,527
0.0903,558
0.0903,590
0.0903,594
0.0903,557
0.0903,489
0.0903,421
0.0903,380
0.0903,386
0.0903,430
0.0903,485
0.0943,517
0.0943,502
0.0943,448
0.0943,378
0.0943,327
0.0943,317
0.0943,351
0.0943,405
0.0943,448
0.0943,449
0.0943,407
0.0943,340
0.0943,280
0.0943,256
0.0943,277
0.0943,331
0.0943,382
0.0943,398
0.0943,368
0.0943,302
0.0943,232
0.0943,187
0.0943,186
0.0943,218
0.0943,251
0.0943,219
0.0943,77
0.0943,27
0.0943,26
0.0943,26
0.0943,26
0.0943,26
0.0943,26
0.0943,26
0.0943,26
0.0943,26
0.1007,26
0.1007,26
0.1007,26
0.1007,26
0.1007,26
0.1007,26
0.1007,26
0.1007,26
0.1007,26
0.1007,26
0.1007,26
0.1007,26
0.1007,26
0.1007,26
0.1007,58
0.1007,97
0.1007,114
0.1007,117
0.1007,127
0.1007,166
0.1007,234
0.1007,318
0.1007,382
0.1007,402
0.1007,380
0.1007,333
0.1007,291
0.1007,286
0.1007,326
0.1007,395
0.1007,466
0.1007,503
0.1007,498
0.1007,458
0.1007,414
0.1007,395
0.1007,419
0.1007,480
0.1007,552
0.1007,598
0.1007,600
0.1007,568
0.1007,517
0.1007,481
0.1007,482
0.1007,524
0.1007,585
0.1007,606
0.1007,605
0.1007,595
0.1007,551
0.1007,502
0.1007,481
0.1007,499
0.1007,547
0.1007,591
0.1007,602
0.1007,579
0.1007,519
0.1007,453
0.1007,413
0.1007,415
0.1007,455
0.1007,506
0.1007,534
0.1007,517
0.1007,463
0.1007,394
0.1007,340
0.1007,326
0.1007,356
0.1007,407
0.1007,446
0.1007,448
0.1007,407
0.1007,342
0.1007,284
0.1007,258
0.1007,274
0.1007,318
0.1007,358
0.1007,358
0.1007,307
0.1007,219
0.1007,123
0.1007,54
0.1007,36
0.1007,68
0.1007,121
0.1007,162
0.1007,163
0.1007,128
0.1007,84
0.1007,69
0.1007,105
0.1007,183
0.1007,271
0.1007,334
0.1007,345
0.1007,305
0.1007,236
0.1007,171
0.1007,142
0.1007,164
0.1007,219
0.1007,276
0.1007,303
0.1007,283
0.1007,229
0.1007,171
0.1007,138
0.1007,149
0.1007,199
0.1007,262
0.1007,299
0.1007,293
0.1007,246
0.1007,183
0.1007,136
0.1007,131
0.1007,170
0.1007,230
0.1007,280
0.1007,289
0.1007,251
0.1007,188
0.1007,133
0.1165,113
0.1165,140
0.1165,198
0.1165,257
0.1165,281
0.1165,259
0.1165,203
0.1165,141
0.1165,106
0.1165,119
0.1165,170
0.1165,232
0.1165,272
0.1165,264
0.1165,217
0.1165,155
0.1165,109
0.1165,105
0.1165,146
0.1165,207
0.1165,258
0.1165,268
0.1165,234
0.1165,173
0.1165,117
0.1165,99
0.1165,126
0.1165,186
0.1165,246
0.1165,272
0.1165,251
0.1165,197
0.1165,137
0.1165,102
0.1165,116
0.1165,170
0.1165,233
0.1165,275
0.1165,270
0.1165,224
0.1165,161
0.1165,115
0.1165,113
0.1165,152
0.1165,214
0.1165,265
0.1165,274
0.1165,238
0.1165,179
0.1165,122
0.123,103
0.123,130
0.123,187
0.123,243
0.123,268
0.123,245
0.123,189
0.123,129
0.123,96
0.123,108
0.123,159
0.123,222
0.123,262
0.123,256
0.123,209
0.123,147
0.1251,101
0.1251,99
0.1251,141
0.1251,202
0.1251,253
0.1251,263
0.1251,227
0.1251,165
0.1251,111
0.1251,94
0.1251,124
0.1251,187
0.1251,249
0.1251,276
0.1251,258
0.1251,203
0.1251,144
0.1251,112
0.1251,128
0.1251,182
0.1251,248
0.1251,290
0.1251,286
0.1251,241
0.1251,181
0.1251,138
0.1251,135
0.1251,179
0.1251,242
0.1251,295
0.1251,305
0.1251,272
0.1251,211
0.1251,158
0.1251,140
0.1251,169
0.1251,229
0.1251,289
0.1251,316
0.1251,294
0.1251,241
0.1251,182
0.1251,150
0.1251,163
0.1251,217
0.1251,281
0.1251,320
0.1251,314
0.1251,268
0.1251,206
0.1251,162
0.1251,159
0.1251,200
0.1251,265
0.1324,314
0.1324,324
0.1324,289
0.1324,231
0.1324,179
0.1336,164
0.1336,196
0.1336,262
0.1336,324
0.1336,354
0.1336,340
0.1336,295
0.1336,247
0.1336,228
0.1336,252
0.1336,312
0.1356,379
0.1356,418
0.1356,407
0.1356,357
0.1356,292
0.1356,246
0.1356,243
0.1356,285
0.1356,346
0.1356,391
0.1356,395
0.1356,355
0.1356,290
0.1356,234
0.1356,216
0.1356,245
0.1356,306
0.1356,362
0.1356,382
0.1356,356
0.1356,297
0.1356,235
0.1356,203
0.1356,217
0.1356,271
0.1356,332
0.1356,368
0.1356,356
0.1356,305
0.1356,239
0.1356,193
0.1356,190
0.1356,232
0.1356,295
0.1356,342
0.1356,346
0.1356,305
0.1356,239
0.1356,175
0.1356,139
0.1356,148
0.1356,193
0.1356,247
0.1356,273
0.1356,257
0.1356,211
0.1356,159
0.1356,134
0.1356,153
0.1356,209
0.1356,275
0.1356,315
0.1356,311
0.1356,267
0.1356,206
0.1356,164
0.1356,162
0.1356,204
0.1356,269
0.1356,320
0.1356,331
0.1356,297
0.1356,240
0.1356,188
0.1356,170
0.1356,197
0.1356,255
0.1356,309
0.1356,330
0.1356,308
0.1356,254
0.1356,196
0.1356,167
0.1356,181
0.1356,233
0.1356,297
0.1356,337
0.1484,330
0.1484,286
0.1484,228
0.149,185
0.149,185
0.149,229
0.149,294
0.149,346
0.149,358
0.149,326
0.149,270
0.149,224
0.149,214
0.149,251
0.149,322
0.149,392
0.149,429
0.149,418
0.149,371
0.151,317
0.151,289
0.151,305
0.151,356
0.151,413
0.151,445
0.151,432
0.151,380
0.151,316
0.151,270
0.151,269
0.151,311
0.151,374
0.151,419
0.151,424
0.153,384
0.153,320
0.153,263
0.153,246
0.153,276
0.153,337
0.153,395
0.153,419
0.153,396
0.153,339
0.153,277
0.153,242
0.153,250
0.153,292
0.153,338
0.153,349
0.153,308
0.153,226
0.153,132
0.153,66
0.153,52
0.1563,92
0.1563,165
0.1563,225
0.1563,249
0.1563,235
0.1563,208
0.1563,195
0.1563,214
0.1563,267
0.1563,338
0.1563,398
0.1563,416
0.1563,384
0.1563,320
0.1563,253
0.1563,220
0.1563,235
0.1563,291
0.1563,357
0.1563,394
0.1563,386
0.1563,338
0.1563,275
0.1563,232
0.1563,233
0.1563,278
0.1563,342
0.1563,389
0.1563,395
0.1563,355
0.1563,291
0.1563,238
0.1563,222
0.1563,253
0.1563,314
0.1563,372
0.1563,392
0.1563,367
0.1563,308
0.1563,247
0.1563,217
0.1563,234
0.1563,289
0.1563,352
0.1563,387
0.1563,377
0.1563,326
0.1563,262
0.1643,219
0.1643,220
0.1643,266
0.1643,331
0.1643,380
0.1643,387
0.1643,348
0.1643,284
0.1643,231
0.1643,215
0.1661,247
0.1661,309
0.1661,367
0.1661,388
0.1661,363
0.1661,303
0.1671,243
0.1671,213
0.1671,228
0.1671,282
0.1671,345
0.1671,380
0.1671,369
0.1671,318
0.1671,253
0.1671,209
0.1671,208
0.1671,250
0.1671,312
0.1671,358
0.1687,360
0.1687,315
0.1687,245
0.1687,176
0.1687,135
0.1687,135
0.1687,165
0.1687,199
0.1687,210
0.1687,186
0.1687,138
0.1687,89
0.1687,74
0.1703,102
0.1703,168
0.1703,241
0.1703,289
0.1703,289
0.1703,248
0.1703,193
0.1703,155
0.1703,159
0.1703,208
0.1703,277
0.1719,331
0.1719,344
0.1719,313
0.1719,257
0.1719,209
0.1719,199
0.1719,233
0.1719,298
0.1719,362
0.1719,390
0.1734,375
0.1734,330
0.1734,280
0.1734,260
0.1734,285
0.1734,349
0.1734,419
0.1734,466
0.1734,470
0.1734,435
0.1734,385
0.175,353
0.175,360
0.175,407
0.175,475
0.175,531
0.175,544
0.175,520
0.175,474
0.175,435
0.175,432
0.175,475
0.175,549
0.175,604
0.175,606
0.1766,606
0.1766,604
0.1766,602
0.1766,604
0.1766,606
0.1766,608
0.1766,608
0.1766,608
0.1766,608
0.1766,608
0.1766,608
0.1766,609
0.1766,608
0.1766,608
0.1766,609
0.1766,609
0.1766,609
0.1766,608
0.1766,609
0.1766,608
0.1766,609
0.1766,608
0.1766,608
0.1801,609
0.1801,608
0.1801,609
0.1801,609
0.1801,609
0.1801,608
0.1801,608
0.1801,609
0.1801,608
0.1801,609
0.1801,608
0.1801,608
0.1801,608
0.1801,607
0.1801,607
0.1801,607
0.1801,607
0.1801,607
0.1801,607
0.1801,606
0.1801,593
0.1801,559
0.1801,545
0.1801,568
0.1801,604
0.1801,607
0.1801,607
0.1801,606
0.1801,602
0.1801,578
0.1801,556
0.1801,562
0.1898,595
0.1898,606
0.1944,606
0.1961,600
0.1961,555
0.1961,487
0.1961,436
0.1961,422
0.1961,449
0.1961,497
0.1961,531
0.2123,523
0.2123,475
0.2123,402
0.2123,337
0.2123,310
0.2123,329
0.2123,377
0.2123,424
0.2293,436
0.2293,402
0.2293,337
0.2293,271
0.2293,234
0.2293,242
0.2293,288
0.2293,342
0.2439,368
0.2463,350
0.2463,292
0.2463,223
0.2463,173
0.2463,168
0.2463,206
0.2463,266
0.2598,309
0.2598,310
0.2598,267
0.2598,201
0.2598,143
0.2598,122
0.2598,149
0.2598,204
0.2756,257
0.2776,274
0.2797,245
0.2817,183
0.2837,119
0.2857,85
0.2877,98
0.2897,149
0.2915,209
0.2945,245
0.2965,232
0.2985,178
0.3005,110
0.3026,62
0.3046,55
0.3066,93
0.3076,149
0.3076,182
0.3076,160
0.3076,66
0.3076,27
0.3076,26
0.3076,26
0.3076,26
0.3234,26
0.3234,26
0.3234,26
0.3234,26
0.3234,26
0.3234,27
0.3234,26
0.3234,26
0.3395,26
0.3395,26
0.3395,26
0.3395,26
0.3395,26
0.3395,26
0.3395,26
0.3395,26
0.3553,26
0.3588,26
0.3588,26
0.3588,26
0.3588,26
0.3588,26
0.3588,26
0.371,26
0.371,26
0.371,72
0.371,127
0.371,158
0.371,143
0.371,91
0.371,34
0.3869,26
0.3889,26
0.3889,40
0.3889,67
0.3948,68
0.3948,28
0.3948,27
0.3948,26
0.4028,26
0.4028,26
0.4028,26
0.4028,26
0.4028,26
0.4028,26
0.4028,26
0.4028,26
0.4186,26
0.4186,26
0.4186,34
0.4186,93
0.4186,160
0.4186,194
0.4186,186
0.4186,145
0.4344,97
0.4344,79
0.4344,104
0.4344,168
0.4344,238
0.4344,285
0.4344,285
0.4344,244
0.4502,190
0.4527,154
0.4547,158
0.4568,206
0.4588,275
0.4608,328
0.4628,341
0.4648,311
0.4658,257
0.4679,211
0.4699,202
0.4719,237
0.4739,301
0.4759,364
0.4779,391
0.4799,375
0.4817,326
0.4817,275
0.4817,250
0.4817,270
0.4817,327
0.4817,391
0.4948,428
0.4959,422
0.4977,376
0.4977,319
0.4977,279
0.4977,282
0.4977,325
0.4977,386
0.4977,433
0.4977,437
0.5138,400
0.5138,342
0.5138,290
0.5138,276
0.5138,306
0.5138,363
0.5138,415
0.5138,434
0.5299,408
0.5299,349
0.5299,288
0.5299,255
0.5299,267
0.5408,316
0.5408,374
0.5408,406
0.546,392
0.5474,342
0.5474,279
0.5474,235
0.5474,234
0.5474,276
0.5474,335
0.5474,380
0.5617,385
0.5638,345
0.5658,283
0.5678,232
0.5698,217
0.5718,246
0.5738,305
0.5758,360
0.5776,379
0.5776,356
0.5776,300
0.5776,241
0.5776,213
0.5776,229
0.5776,282
0.5776,343
0.5936,378
0.5952,369
0.5952,321
0.5952,261
0.5952,220
0.5952,220
0.5952,262
0.5952,324
0.6104,370
0.6124,375
0.6144,338
0.6164,278
0.6185,227
0.6205,213
0.6225,243
0.6245,303
0.6255,359
0.6255,379
0.6255,355
0.6255,298
0.6255,241
0.6255,212
0.6255,228
0.6255,283
0.6416,345
0.6416,381
0.6416,374
0.6416,328
0.6416,269
0.6416,230
0.6416,233
0.6416,277
0.6575,340
0.6575,387
0.6575,393
0.6575,356
0.6575,298
0.6575,249
0.6575,235
0.6732,269
0.6732,330
0.6732,387
0.6732,410
0.6732,388
0.6732,334
0.6732,277
0.6732,251
0.6891,268
0.6891,321
0.6891,383
0.6891,418
0.6952,409
0.6952,363
0.6952,303
0.6952,263
0.705,264
0.705,307
0.705,368
0.705,414
0.705,421
0.705,385
0.705,327
0.705,277
0.7209,264
0.7209,293
0.7209,352
0.7209,406
0.7209,425
0.7209,402
0.7209,348
0.7209,290
0.737,261
0.737,277
0.737,329
0.737,388
0.7437,422
0.7464,412
0.7484,364
0.7505,305
0.7525,265
0.7525,266
0.7525,308
0.7525,369
0.7525,413
0.7525,418
0.7525,382
0.7525,323
0.7686,273
0.7707,260
0.7727,292
0.7747,350
0.7767,404
0.7787,424
0.7807,399
0.7828,345
0.7845,289
0.7871,261
0.7891,278
0.7907,332
0.793,392
0.7952,427
0.7969,419
0.7986,373
0.8003,315
0.8023,276
0.8043,279
0.8063,321
0.8084,382
0.8104,428
0.8124,433
0.8144,397
0.8162,340
0.8162,292
0.8162,280
0.8162,313
0.8162,373
0.8162,430
0.8162,452
0.8162,431
0.8319,377
0.8349,322
0.8359,293
0.8394,308
0.8411,358
0.8428,418
0.8446,452
0.8446,441
0.8483,394
0.8483,335
0.8515,295
0.8535,295
0.8555,337
0.8555,394
0.8555,435
0.8555,438
0.8635,398
0.8635,337
0.8635,286
0.8635,273
0.8635,302
0.8635,361
0.8635,415
0.8635,435
0.8792,412
0.8792,358
0.8792,302
0.8792,276
0.8792,295
0.8792,348
0.8792,408
0.895,443
0.8955,434
0.8955,387
0.8955,330
0.8955,291
0.8955,296
0.8955,341
0.8955,405
0.911,452
0.911,458
0.9149,422
0.917,363
0.919,312
0.921,300
0.923,331
0.925,389
0.9268,445
0.9268,466
0.9268,442
0.9268,388
0.9268,332
0.9268,305
0.9268,320
0.9268,373
0.9428,432
0.9448,463
0.9468,452
0.9489,403
0.9509,341
0.9529,299
0.9549,301
0.9569,343
0.9587,404
0.96,451
0.96,459
0.96,424
0.9667,366
0.9667,314
0.9667,295
0.9667,317
0.9744,362
0.9744,394
0.9786,387
0.9786,332
0.9786,245
0.9786,161
0.9786,113
0.9786,119
0.9906,169
0.9906,236
0.9906,284
0.996,292
0.996,271
0.996,250
0.996,252
0.996,286
1.0065,350
1.0065,420
1.0065,467
1.0065,468
1.0065,426
1.0065,361
1.0065,306
1.0065,291
1.0224,320
1.0244,379
1.0244,435
1.0244,456
1.0244,432
1.0244,379
1.0244,323
1.0244,294
1.0383,312
1.0383,363
1.0383,422
1.0383,457
1.0383,446
1.0383,399
1.0383,340
1.0383,300
1.0542,301
1.0542,343
1.0542,405
1.0542,450
1.0542,454
1.0542,419
1.0542,360
1.0542,310
1.0701,297
1.0701,327
1.0701,384
1.0701,438
1.0701,458
1.0701,433
1.0701,378
1.0701,323
1.086,295
1.0883,310
1.0902,362
1.0918,422
1.0951,454
1.0962,445
1.0988,397
1.0988,337
1.1028,296
1.1045,298
1.1045,340
1.1045,399
1.1045,444
1.1045,447
1.1176,409
1.1176,350
1.1176,300
1.1202,286
1.1222,316
1.1243,375
1.1263,428
1.1263,448
1.1295,424
1.1295,369
1.1337,311
1.1337,285
1.1337,301
1.1337,352
1.1337,411
1.1337,444
1.1337,434
1.1337,385
1.1499,326
1.1499,285
1.1499,286
1.1499,328
1.1499,387
1.1499,430
1.1499,433
1.1499,394
1.1659,333
1.1679,282
1.1699,269
1.172,296
1.174,353
1.176,406
1.176,424
1.176,398
1.1817,343
1.1817,285
1.1817,256
1.1817,273
1.1817,324
1.1817,382
1.1817,416
1.1962,404
1.1978,354
1.1978,294
1.1978,254
1.1978,254
1.1978,296
1.1978,359
1.1978,405
1.1978,411
1.2136,376
1.2136,319
1.2136,271
1.2136,261
1.2136,295
1.2136,358
1.2136,417
1.2136,443
1.2308,426
1.2308,380
1.2308,336
1.2308,321
1.2308,352
1.2308,419
1.2308,493
1.2451,538
1.2451,535
1.2451,494
1.2451,438
1.2524,400
1.2544,403
1.2564,448
1.2585,510
1.2608,556
1.2608,559
1.2608,520
1.2608,459
1.2608,407
1.2608,392
1.2608,423
1.2608,482
1.2768,536
1.2768,551
1.2768,523
1.2768,464
1.2768,402
1.2768,372
1.2768,387
1.2768,440
1.2928,498
1.2928,530
1.2962,514
1.2962,462
1.2962,396
1.2962,353
1.2962,352
1.2962,394
1.3088,453
1.3088,494
1.3088,494
1.3088,450
1.3088,382
1.3088,326
1.3088,307
1.3088,328
1.3246,370
1.3246,404
1.3246,407
1.3246,371
1.3246,312
1.3246,257
1.3246,234
1.3246,257
1.3407,315
1.3407,379
1.3407,414
1.3407,404
1.3407,356
1.3407,296
1.3407,257
1.3407,260
1.3565,304
1.3585,367
1.3604,412
1.3604,416
1.3604,377
1.3604,318
1.3604,267
1.3604,253
1.3725,286
1.3725,345
1.3725,398
1.3725,417
1.3725,392
1.3827,337
1.3852,281
1.3868,256
1.3885,273
1.3903,327
1.392,387
1.3938,421
1.3964,410
1.3964,364
1.3964,306
1.3964,267
1.4045,270
1.4065,314
1.4085,374
1.4085,420
1.4085,424
1.4085,386
1.4085,328
1.419,280
1.4205,267
1.4205,297
1.4205,356
1.4205,409
1.4205,425
1.4205,399
1.4205,343
1.4205,283
1.4363,256
1.4363,272
1.4363,323
1.4363,381
1.4434,414
1.4454,403
1.4474,354
1.4494,295
1.4514,257
1.4514,260
1.4556,305
1.4576,368
1.4596,413
1.4616,418
1.4636,383
1.4656,325
1.4674,275
1.4695,264
1.4715,297
1.4735,357
1.4755,414
1.4775,436
1.4795,413
1.4819,362
1.4835,308
1.4855,283
1.4876,303
1.4896,355
1.4896,414
1.4945,446
1.4965,437
1.4965,389
1.4992,330
1.5012,293
1.5032,296
1.5052,338
1.5091,399
1.5111,444
1.5111,449
1.5149,412
1.5149,354
1.5149,306
1.5149,293
1.5149,325
1.5149,381
1.5149,433
1.5149,451
1.531,426
1.531,372
1.531,319
1.531,295
1.531,315
1.531,367
1.531,425
1.531,452
1.5469,433
1.5469,372
1.5469,291
1.5469,223
1.5469,194
1.5469,208
1.5469,243
1.5469,271
1.5628,266
1.5628,227
1.5628,173
1.5628,134
1.5628,140
1.5628,200
1.5628,303
1.5628,399
1.5788,447
1.5788,438
1.5788,388
1.5788,328
1.5788,291
1.5788,299
1.5788,342
1.5788,394
1.5948,424
1.5968,411
1.5968,363
1.5968,306
1.5968,269
1.5968,270
1.5968,313
1.5968,372
1.6109,413
1.6109,412
1.6109,370
1.6109,302
1.6109,239
1.6109,203
1.6109,199
1.6109,215
1.6269,231
1.6269,222
1.6269,182
1.6269,125
1.6269,76
1.6269,55
1.6269,80
1.6269,142
1.6429,208
1.6442,247
1.6462,242
1.6482,198
1.6502,138
1.6502,96
1.6502,97
1.6502,139
1.6587,199
1.6587,250
1.6587,259
1.6587,228
1.6587,175
1.6587,130
1.6587,120
1.6587,154
1.6746,214
1.6746,271
1.6746,295
1.6746,277
1.6746,227
1.6746,175
1.6866,151
1.6886,170
1.6903,223
1.6903,286
1.6903,324
1.6972,316
1.6972,276
1.7009,222
1.7029,185
1.7029,190
1.7061,235
1.7081,296
1.7081,342
1.7081,349
1.7081,315
1.7081,259
1.7081,214
1.7081,202
1.7221,231
1.7221,289
1.7252,345
1.7272,366
1.7293,346
1.7313,298
1.7333,245
1.7353,219
1.7373,238
1.7413,290
1.7413,348
1.7434,383
1.7469,376
1.7486,331
1.7502,276
1.7518,240
1.7551,241
1.7567,283
1.7567,344
1.7567,387
1.7567,393
1.7567,360
1.7567,305
1.769,258
1.769,247
1.769,276
1.769,331
1.769,384
1.769,403
1.769,379
1.769,329
1.7847,277
1.7867,253
1.7867,269
1.7896,322
1.7916,382
1.7941,417
1.7941,412
1.7975,372
1.8004,320
1.8004,285
1.8004,292
1.8004,334
1.8004,395
1.8004,443
1.8004,452
1.8004,421
1.8164,372
1.8164,330
1.8164,318
1.8164,351
1.8164,410
1.8164,464
1.8164,487
1.8164,472
1.8321,427
1.835,381
1.835,363
1.835,386
1.835,444
1.835,512
1.835,556
1.8468,557
1.8479,526
1.8507,483
1.8507,458
1.8538,472
1.8558,529
1.8579,597
1.8599,606
1.8619,606
1.865,603
1.865,581
1.865,550
1.865,541
1.8729,567
1.8729,604
1.8729,606
1.8729,606
1.8796,605
1.8796,586
1.8796,546
1.8796,520
1.8796,532
1.8796,572
1.8915,604
1.8935,605
1.8953,603
1.8978,573
1.8998,522
1.9018,485
1.9038,483
1.9038,520
1.9038,575
1.911,604
1.9124,602
1.915,569
1.9166,512
1.9182,462
1.9197,446
1.9229,474
1.9249,527
1.9269,574
1.9269,590
1.9269,561
1.9269,503
1.9269,445
1.9269,414
1.9269,425
1.9269,473
1.9425,529
1.9425,556
1.9425,543
1.9425,494
1.9425,434
1.9425,393
1.9425,394
1.9562,433
1.9584,489
1.9604,531
1.9624,531
1.9624,490
1.9653,432
1.9673,381
1.9693,365
1.9713,394
1.9744,452
1.9764,502
1.9784,518
1.9804,491
1.9824,434
1.9844,376
1.9864,349
1.9884,364
1.9902,413
1.9922,470
1.9942,501
1.9962,487
1.9978,439
1.9998,379
2.0018,338
2.0018,336
2.0059,374
2.0079,426
2.0079,462
2.0079,458
2.0079,414
2.0079,349
2.0079,293
2.0079,272
2.0219,287
2.024,321
2.024,344
2.024,328
2.024,274
2.0322,203
2.0342,142
2.0363,117
2.038,148
2.04,215
2.0421,289
2.0441,337
2.0461,336
2.0481,295
2.0501,242
2.0501,208
2.0538,212
2.0538,255
2.0538,319
2.0538,366
2.0538,370
2.0538,337
2.0538,284
2.0538,237
2.0699,226
2.0719,259
2.074,317
2.076,371
2.078,392
2.08,370
2.082,318
2.084,269
2.0858,245
2.0878,263
2.0898,317
2.0919,378
2.0939,412
2.0959,405
2.0979,364
2.0999,311
2.1027,276
2.104,283
2.104,328
2.104,388
2.104,437
2.104,446
2.104,414
2.104,360
2.1175,313
2.1175,295
2.1175,315
2.124,357
2.124,385
2.124,375
2.124,323
2.124,242
2.1335,167
2.1335,127
2.1335,140
2.1335,193
2.1429,262
2.1429,312
2.1429,324
2.1492,315
2.1492,304
2.1492,303
2.1546,328
2.1546,381
2.1546,442
2.1546,479
2.1546,479
2.1645,439
2.1665,378
2.1665,329
2.1716,319
2.1716,349
2.1736,406
2.1736,462
2.1736,483
2.1811,463
2.1817,415
2.1817,363
2.1817,337
2.1817,354
2.1817,403
2.1817,457
2.1817,489
2.1959,479
2.198,435
2.198,378
2.198,342
2.198,343
2.198,383
2.198,442
2.198,485
2.2117,488
2.2138,455
2.2158,401
2.2178,354
2.2198,342
2.2218,372
2.2238,424
2.2258,474
2.2276,492
2.2296,467
2.2316,413
2.2336,360
2.2356,334
2.2376,348
2.2397,397
2.2417,453
2.2434,483
2.2434,474
2.2434,431
2.2434,375
2.2434,338
2.2434,342
2.2434,383
2.2434,438
2.2607,480
2.2627,484
2.2647,447
2.2667,391
2.2667,345
2.2701,331
2.2728,359
2.2738,415
2.2771,465
2.2787,481
2.2803,458
2.2819,405
2.2835,351
2.2867,325
2.2887,341
2.2912,389
2.2912,444
2.2932,474
2.2932,462
2.298,415
2.3004,358
2.3024,320
2.3045,321
2.3073,364
2.3078,421
2.3078,463
2.3078,467
2.3078,433
2.3078,377
2.3175,330
2.3175,319
2.323,346
2.323,399
2.323,450
2.323,467
2.323,441
2.323,390
2.323,337
2.323,309
2.3382,325
2.3382,375
2.3382,428
2.3382,459
2.3465,449
2.348,402
2.348,345
2.348,307
2.3539,309
2.3539,347
2.3586,405
2.361,449
2.3628,452
2.3646,420
2.3669,368
2.3687,323
2.371,314
2.3716,347
2.3716,405
2.3716,458
2.3716,480
2.3792,460
2.3812,409
2.3837,359
2.3852,336
2.3872,351
2.3913,402
2.3913,458
2.3933,487
2.3953,478
2.3983,436
2.4012,382
2.4012,345
2.4012,350
2.4012,391
2.4081,449
2.4081,492
2.4081,498
2.4145,464
2.4162,409
2.4179,365
2.4212,354
2.4228,383
2.4245,442
2.4245,492
2.4245,510
2.4245,488
2.4323,438
2.4352,384
2.4367,361
2.4367,379
2.4367,429
2.4367,485
2.4367,519
2.4367,510
2.4503,466
2.4523,412
2.4537,375
2.4537,377
2.4573,419
2.4573,478
2.4614,521
2.462,528
2.4637,494
2.4637,440
2.4637,394
2.4637,383
2.4637,414
2.4637,468
2.4637,521
2.4637,540
2.4799,515
2.4831,467
2.4831,417
2.4831,392
2.4831,410
2.4831,462
2.4831,517
2.4831,549
2.4956,540
2.4984,497
2.4984,442
2.4984,407
2.4984,409
2.4984,449
2.4984,507
2.4984,551
2.5115,553
2.5135,518
2.5156,467
2.5176,421
2.5196,409
2.5216,441
2.5236,497
2.5256,548
2.5274,566
2.5274,544
2.5274,492
2.5274,441
2.5274,416
2.5274,432
2.5274,482
2.5274,540
2.5435,570
2.5435,558
2.5484,515
2.5505,460
2.5525,421
2.5545,422
2.5545,463
2.5592,519
2.5592,561
2.5592,566
2.5592,531
2.5592,475
2.5592,432
2.5592,419
2.5592,447
2.5749,503
2.5749,555
2.5749,570
2.5749,548
2.5749,495
2.5749,439
2.5749,410
2.5886,425
2.5906,471
2.5927,526
2.5947,557
2.5967,547
2.5987,500
2.5987,447
2.5987,411
2.5987,412
2.6064,454
2.6085,511
2.6105,553
2.6125,556
2.6145,521
2.6165,466
2.6185,417
2.6206,405
2.6223,433
2.625,487
2.627,539
2.629,556
2.6311,532
2.6311,483
2.6311,433
2.6311,406
2.6389,423
2.6394,473
2.6394,529
2.6394,557
2.6394,547
2.6394,502
2.6394,446
2.652,408
2.654,409
2.656,447
2.658,503
2.6604,546
2.6625,547
2.6645,512
2.6665,458
2.6665,410
2.6701,396
2.6721,426
2.6741,480
2.6741,529
2.6741,546
2.6741,523
2.6823,472
2.6843,421
2.6869,397
2.6869,415
2.6869,463
2.6869,519
2.6869,544
2.6869,523
2.6987,466
2.6987,390
2.702,324
2.702,293
2.702,301
2.702,325
2.702,341
2.702,328
2.7134,283
2.7134,227
2.718,189
2.718,192
2.7225,244
2.7253,339
2.7269,433
2.7286,485
2.7302,484
2.7319,442
2.7335,389
2.7335,359
2.7335,369
2.7335,409
2.7335,457
2.7447,484
2.7447,473
2.7447,425
2.7494,370
2.7494,334
2.7494,336
2.7494,378
2.7494,435
2.7494,475
2.7494,477
2.7635,442
2.7653,386
2.7653,338
2.7653,327
2.7653,356
2.7653,408
2.7653,459
2.7653,476
2.781,450
2.781,397
2.781,343
2.781,315
2.781,330
2.781,379
2.781,433
2.781,461
2.7967,450
2.7988,404
2.7988,347
2.8031,310
2.8037,313
2.8069,351
2.8091,406
2.8106,447
2.8127,448
2.8148,411
2.8169,356
2.8169,310
2.8169,297
2.8169,327
2.8169,382
2.8169,430
2.8279,445
2.8279,422
2.8279,368
2.8279,315
2.8279,291
2.8279,308
2.8279,355
2.8279,410
2.8441,438
2.8441,423
2.8488,376
2.8508,320
2.8528,281
2.8548,284
2.8568,324
2.8588,378
2.8598,417
2.8618,419
2.8639,381
2.8659,324
2.8659,277
2.8659,266
2.8725,293
2.8725,348
2.8758,398
2.8758,411
2.8805,385
2.8825,333
2.8846,279
2.8866,254
2.8886,272
2.8906,322
2.8933,374
2.8933,402
2.8933,388
2.8991,339
2.8991,282
2.8991,247
2.9037,250
2.9057,295
2.9089,357
2.9089,400
2.9089,404
2.9089,371
2.9089,319
2.9089,276
2.9089,273
2.9089,310
2.9235,374
2.9235,434
2.9235,460
2.9235,442
2.9235,395
2.9235,350
2.9235,334
2.9392,361
2.9403,419
2.9403,478
2.9403,508
2.9403,490
2.9403,434
2.9403,368
2.9403,325
2.9548,328
2.9548,370
2.9589,427
2.96,464
2.9616,456
2.9648,407
2.9665,340
2.9682,285
2.9708,271
2.9708,301
2.9708,356
2.9708,402
2.9708,409
2.9708,370
2.983,303
2.983,239
2.9869,207
2.9869,223
2.9869,273
2.9925,327
2.9946,349
2.9966,325
2.9991,263
3.0011,192
3.0029,146
3.0029,143
3.0056,183
3.0056,239
3.0056,274
3.0056,263
3.0056,209
3.0056,135
3.0189,76
3.0189,57
3.0231,87
3.0231,147
3.0258,197
3.0258,209
3.0258,173
3.0258,105
3.0346,41
3.0346,26
3.0346,35
3.0415,85
3.0415,144
3.0415,171
3.0458,152
3.0478,93
3.0499,28
3.0499,27
3.0499,26
3.0499,37
3.0499,79
3.0499,109
3.0499,97
3.0499,43
3.0659,27
3.0659,26
3.0659,26
3.0659,26
3.0659,26
3.0659,26
3.0659,26
3.0659,26
3.0819,26
3.0819,26
3.0819,26
3.0819,26
3.0819,26
3.0819,26
3.0819,26
3.0819,26
3.0979,26
3.0995,26
3.0995,26
3.0995,26
3.0995,26
3.0995,26
3.0995,26
3.0995,26
3.1141,26
3.1141,26
3.1141,26
3.1141,26
3.1141,26
3.1141,26
3.1141,26
3.1141,26
3.1298,26
3.1298,26
3.1298,26
3.1298,26
3.1298,26
3.1298,26
3.1298,26
3.1298,26
3.1458,26
3.1478,26
3.1507,26
3.1528,26
3.1548,26
3.1568,26
3.1588,26
3.1608,26
3.1618,26
3.1638,26
3.1658,26
3.1678,26
3.1698,26
3.1719,26
3.1739,26
3.1759,26
3.1777,26
3.1797,26
3.1817,26
3.1837,26
3.1857,26
3.1877,26
3.1897,26
3.1897,26
3.1932,26
3.1932,26
3.1976,26
3.1996,26
3.2016,26
3.2036,26
3.2036,26
3.2036,26
3.209,26
3.209,26
3.209,26
3.209,26
3.2176,26
3.2196,26
3.2216,26
3.2236,26
3.2251,26
3.2251,26
3.2251,26
3.2251,26
3.2251,32
3.2251,68
3.2251,140
3.241,234
3.241,322
3.241,372
3.241,370
3.241,329
3.2499,278
3.252,251
3.2549,267
3.2566,324
3.2587,397
3.2607,450
3.2627,457
3.2647,421
3.2647,362
3.2647,311
3.2647,293
3.2724,310
3.2724,345
3.2724,367
3.2777,354
3.2807,304
3.2828,235
3.2848,176
3.2868,158
3.2883,192
3.2896,266
3.2916,353
3.2936,422
3.2957,456
3.2977,452
3.2997,428
3.3017,414
3.3037,433
3.3057,486
3.3077,551
3.3098,594
3.3118,598
3.3151,566
3.3151,514
3.3171,475
3.3196,472
3.3219,512
3.3239,577
3.3239,606
3.3239,606
3.3239,604
3.3239,586
3.3239,552
3.3357,537
3.3357,559
3.3394,603
3.3394,607
3.3394,606
3.3394,606
3.3394,605
3.3394,599
3.3517,590
3.3537,601
3.3557,606
3.3584,607
3.3607,607
3.3607,607
3.3607,606
3.3607,605
3.3677,604
3.3677,605
3.3677,607
3.3677,607
3.3677,607
3.3677,608
3.3677,607
3.3677,607
3.3837,606
3.3837,606
3.3879,607
3.3879,608
3.3879,607
3.3879,608
3.3879,608
3.399,607
3.4001,606
3.4001,606
3.4001,606
3.4001,607
3.4074,607
3.4094,607
3.4114,607
3.4134,607
3.4152,606
3.4152,605
3.4152,605
3.4152,606
3.4152,607
3.4152,607
3.4281,607
3.431,607
3.431,606
3.4342,605
3.4342,605
3.4379,606
3.4399,607
3.4419,607
3.4439,608
3.4439,607
3.447,606
3.447,604
3.4515,602
3.4536,604
3.4556,606
3.4576,607
3.46,607
3.4631,606
3.4651,606
3.4671,602
3.4691,586
3.4711,580
3.4731,600
3.4751,606
3.4771,606
3.4789,606
3.4789,604
3.4813,587
3.4813,549
3.4813,525
3.4813,535
3.4813,574
3.4813,605
3.4949,605
3.497,601
3.497,566
3.5004,514
3.5004,478
3.5004,479
3.5061,518
3.5061,573
3.5107,603
3.5125,601
3.5146,569
3.5166,514
3.5186,468
3.5206,456
3.5226,486
3.5246,542
3.5263,590
3.5263,602
3.5263,580
3.5263,528
3.5263,476
3.5263,453
3.5263,471
3.5406,523
3.5424,579
3.5444,602
3.5464,591
3.5484,546
3.5484,489
3.5484,453
3.5484,456
3.5484,498
3.5583,557
3.5583,595
3.5583,596
3.5583,559
3.5583,501
3.5583,455
3.5583,441
3.5583,471
3.5741,527
3.5761,575
3.5781,590
3.5801,562
3.5822,506
3.5842,451
3.5862,424
3.5882,440
3.5899,489
3.5919,544
3.594,570
3.596,555
3.598,505
3.6005,448
3.6025,408
3.6045,410
3.606,450
3.608,507
3.6101,547
3.6121,545
3.6141,505
3.6161,446
3.6181,396
3.6201,381
3.6219,409
3.6219,461
3.6219,508
3.6289,520
3.6309,491
3.6329,435
3.6329,379
3.6355,351
3.6376,366
3.6411,414
3.6431,466
3.6431,492
3.6465,476
3.6485,426
3.6506,367
3.6506,328
3.6533,330
3.6533,371
3.6533,426
3.6533,466
3.6533,465
3.6533,425
3.6533,367
3.669,320
3.669,309
3.669,339
3.669,394
3.6758,443
3.6778,457
3.6798,431
3.6798,378
3.6851,327
3.6851,303
3.6876,322
3.6876,374
3.6926,430
3.6946,460
3.6966,446
3.6986,400
3.7006,343
3.7006,307
3.7041,312
3.7068,354
3.7085,411
3.7101,451
3.7118,452
3.7136,413
3.7163,356
3.7163,309
3.7163,296
3.7163,323
3.7163,375
3.7163,420
3.7163,432
3.7163,405
3.7322,350
3.7322,296
3.7322,271
3.7322,287
3.7322,337
3.7322,390
3.7322,417
3.7322,402
3.7483,354
3.7483,298
3.7483,263
3.754,267
3.7564,309
3.7584,368
3.7605,407
3.7625,407
3.7648,369
3.7669,312
3.7689,266
3.7709,257
3.7729,290
3.7749,347
3.7749,397
3.7785,412
3.7802,384
3.7802,330
3.7802,275
3.7802,248
3.7802,265
3.7802,313
3.7926,366
3.7926,392
3.7964,377
3.7964,326
3.8009,267
3.8009,228
3.8009,231
3.8009,271
3.8009,328
3.8009,367
3.8123,364
3.8123,322
3.8156,262
3.8156,211
3.8214,193
3.8214,216
3.8234,261
3.8265,297
3.8282,298
3.8303,255
3.8303,177
3.8333,94
3.8353,43
3.8373,39
3.8373,74
3.8373,116
3.8439,130
3.8439,98
3.8439,33
3.8439,26
3.8439,26
3.8439,26
3.8439,26
3.8439,26
3.8597,48
3.8617,64
3.8637,66
3.8657,65
3.8677,72
3.8677,99
3.8677,151
3.8677,214
3.8775,266
3.8775,278
3.8799,249
3.8799,193
3.8799,140
3.8799,115
3.8873,137
3.8906,192
3.8916,254
3.8916,291
3.8916,286
3.8973,246
3.9011,195
3.9031,162
3.9051,166
3.9072,209
3.9092,268
3.9112,311
3.9112,314
3.9153,279
3.9173,225
3.9173,180
3.9193,170
3.9231,200
3.9251,255
3.9268,306
3.9268,323
3.9268,298
3.9332,247
3.9332,196
3.9353,172
3.9392,189
3.9404,240
3.9404,296
3.9404,325
3.9404,314
3.9404,269
3.9404,214
3.9528,179
3.9551,181
3.9571,222
3.9591,278
3.9591,319
3.9632,319
3.9632,282
3.9652,226
3.9672,180
3.971,168
3.973,197
3.973,253
3.973,303
3.973,320
3.9808,296
3.9808,244
3.9844,192
3.9863,168
3.9863,185
3.9863,235
3.9863,292
3.9863,322
3.9863,312
3.9863,270
4.0011,218
4.0021,186
4.0021,193
4.0021,239
4.0021,300
4.0021,347
4.0021,357
4.0021,333
4.0021,291
4.0183,262
4.0203,266
4.0203,310
4.0203,382
4.0203,451
4.0203,491
4.0203,499
4.0203,484
4.0341,471
4.0341,485
4.0341,536
4.0341,604
4.0341,607
4.0341,607
4.0341,607
4.0341,606
4.0499,605
4.0499,604
4.0499,605
4.0499,606
4.0583,607
4.0583,606
4.0583,606
4.0583,605
4.0659,590
4.0679,554
4.0699,531
4.0719,538
4.0719,567
4.0762,590
4.0782,584
4.0803,539
4.083,469
4.085,405
4.087,368
4.0891,376
4.0911,418
4.0911,462
4.0951,480
4.0971,457
4.0971,398
4.0971,330
4.1015,284
4.1015,278
4.1055,312
4.1075,360
4.1095,390
4.1131,382
4.1151,335
4.1171,270
4.1191,217
4.1211,200
4.1231,227
4.1251,278
4.1251,322
4.1283,330
4.1303,296
4.1303,235
4.1303,177
4.1303,149
4.1303,166
4.1303,217
4.1303,273
4.1443,299
4.1443,282
4.1487,229
4.1507,168
4.1527,127
4.1547,131
4.1567,173
4.1587,230
4.1602,269
4.1622,267
4.1642,223
4.1663,162
4.1683,111
4.1683,100
4.1718,132
4.1718,190
4.1764,241
4.1772,255
4.181,226
4.181,169
4.181,113
4.181,90
4.181,111
4.181,167
4.1921,224
4.1921,255
4.1921,240
4.1921,190
4.1921,130
4.2016,92
4.2016,98
4.2016,144
4.2089,206
4.2089,250
4.2089,252
4.2089,212
4.2089,153
4.2175,105
4.2175,97
4.2175,132
4.2242,193
4.2242,247
4.2282,265
4.2282,238
4.2282,183
4.2282,129
4.2282,107
4.2383,130
4.2401,187
4.2401,247
4.2436,278
4.2456,264
4.2476,213
4.2496,155
4.2516,118
4.2536,126
4.2557,174
4.2583,235
4.2603,280
4.2603,280
4.2644,240
4.2664,180
4.2684,134
4.2714,126
4.2714,163
4.2743,223
4.2763,277
4.2783,294
4.2803,266
4.2823,209
4.2843,155
4.2864,133
4.2874,157
4.2894,214
4.2914,276
4.2934,309
4.2954,295
4.2974,247
4.2994,191
4.3019,158
4.3035,166
4.3035,214
4.3035,277
4.3094,319
4.3114,317
4.3134,276
4.3154,218
4.3192,173
4.3208,168
4.3224,207
4.3241,271
4.3257,325
4.3289,341
4.3289,314
4.3289,259
4.3289,207
4.3351,188
4.3351,215
4.3351,274
4.3432,336
4.3432,367
4.3452,353
4.3472,304
4.351,248
4.351,215
4.351,225
4.351,275
4.351,337
4.361,379
4.3621,378
4.3621,337
4.3667,277
4.3667,232
4.3667,225
4.372,261
4.374,321
4.376,371
4.378,384
4.38,353
4.382,294
4.384,240
4.386,218
4.388,239
4.388,294
4.3915,350
4.3915,375
4.3951,356
4.3991,302
4.3991,239
4.4022,198
4.4042,196
4.4062,226
4.4082,264
4.4102,282
4.413,259
4.415,198
4.417,125
4.419,68
4.421,51
4.423,81
4.425,135
4.427,175
4.4288,170
4.4308,117
4.4328,31
4.4328,26
4.4328,26
4.4391,26
4.4391,26
4.4431,26
4.4449,30
4.4461,26
4.4479,26
4.4479,26
4.4479,36
4.4479,88
4.4479,170
4.4585,250
4.4607,301
4.4618,302
4.4638,258
4.4659,194
4.4659,145
4.4659,135
4.4659,171
4.4659,232
4.4768,289
4.4768,309
4.4768,285
4.4768,236
4.4768,189
4.4768,171
4.4768,197
4.4768,257
4.4925,317
4.4925,349
4.4925,340
4.4925,295
4.4925,244
4.5022,216
4.505,230
4.506,282
4.5087,350
4.5104,397
4.512,402
4.5135,371
4.5135,321
4.5135,284
4.5135,284
4.5214,325
4.5245,388
4.5245,443
4.5245,463
4.5245,441
4.5245,394
4.5342,350
4.5362,337
4.5382,366
4.5409,427
4.5409,491
4.5409,526
4.5409,517
4.5409,479
4.5409,429
4.5409,402
4.5543,417
4.5561,470
4.5561,536
4.5561,580
4.5561,587
4.5561,553
4.5561,501
4.5561,463
4.5561,459
4.5727,497
4.5734,561
4.5734,603
4.5734,605
4.5734,598
4.5734,561
4.5734,519
4.5734,507
4.5881,532
4.5881,585
4.5881,606
4.5881,606
4.5881,605
4.5881,598
4.6008,567
4.6023,543
4.604,550
4.6054,588
4.608,606
4.61,607
4.6119,605
4.6119,600
4.6119,564
4.6119,527
4.62,519
4.62,549
4.6246,596
4.6246,605
4.6246,605
4.6291,598
4.6311,560
4.6311,514
4.6368,492
4.639,511
4.639,559
4.6414,602
4.6451,605
4.6471,597
4.6471,553
4.6491,497
4.652,463
4.655,468
4.657,511
4.657,568
4.6604,601
4.6604,598
4.6604,562
4.6604,511
4.6678,478
4.6678,485
4.672,532
4.6741,596
4.6741,606
4.6741,606
4.6741,597
4.6741,547
4.6835,486
4.6855,449
4.6882,450
4.6902,483
4.6922,519
4.6942,523
4.6962,484
4.6982,412
4.6992,333
4.7023,280
4.7023,272
4.7054,302
4.7074,347
4.7102,369
4.7122,347
4.7142,285
4.7152,207
4.7172,145
4.7193,124
4.7213,150
4.7233,199
4.7253,238
4.7273,236
4.7298,190
4.7313,116
4.7341,46
4.7362,27
4.7382,31
4.7402,72
4.7422,119
4.7442,137
4.7462,107
4.7472,43
4.7492,27
4.7512,26
4.7539,26
4.7559,26
4.7581,26
4.7601,26
4.7621,26
4.7631,26
4.7631,26
4.7631,26
4.7631,26
4.7631,26
4.7631,26
4.7767,26
4.7767,26
4.7812,26
4.7812,26
4.7842,26
4.7858,26
4.7891,26
4.7908,26
4.7924,26
4.7941,26
4.7967,26
4.7987,26
4.7987,26
4.8026,26
4.8026,26
4.8026,26
4.8026,26
4.8026,26
4.8128,26
4.8154,26
4.8171,26
4.8188,26
4.8206,26
4.8229,26
4.8247,26
4.8265,26
4.8272,26
4.8272,26
4.833,26
4.833,26
4.833,26
4.833,26
4.833,26
4.8423,26
4.8443,26
4.8443,26
4.8443,26
4.8443,26
4.8525,26
4.8525,27
4.8525,26
4.858,26
4.858,27
4.858,26
4.8642,26
4.8642,26
4.8642,26
4.8705,26
4.8705,26
4.8739,26
4.8739,26
4.8739,26
4.8739,26
4.8739,26
4.8739,26
4.8857,26
4.8857,26
4.8897,26
4.8897,26
4.8945,26
4.8965,26
4.8965,26
4.8965,26
4.8965,26
4.903,26
4.9054,26
4.9085,26
4.9106,26
4.9106,26
4.9106,26
4.9106,26
4.9171,26
4.9171,26
4.9224,26
4.9245,26
4.926,26
4.926,26
4.926,30
4.926,48
4.926,79
4.926,135
4.9388,220
4.9403,321
4.9403,410
4.9403,457
4.9403,456
4.9403,418
4.9494,372
4.9494,352
4.9533,372
4.9533,431
4.9589,502
4.9589,551
4.9589,555
4.9589,518
4.9654,464
4.9691,420
4.9702,412
4.9722,447
4.9722,502
4.9768,546
4.9784,550
4.9784,510
4.9784,446
4.9841,385
4.9851,359
4.9885,377
4.9914,428
4.9914,482
4.9948,508
4.9958,488
4.9989,440
5.0005,389
5.0021,369
5.0053,396
5.0053,464
5.0083,541
5.0103,591
5.0123,595
5.0144,555
5.0164,494
5.0177,448
5.0177,439
5.0177,474
5.0177,534
5.0177,581
5.0177,591
5.0302,558
5.0322,497
5.0322,444
5.0355,424
5.0355,452
5.0355,513
5.0355,576
5.0355,601
5.0464,588
5.0481,534
5.0481,471
5.0481,433
5.0481,433
5.0481,468
5.0481,507
5.0481,518
5.0481,481
5.0639,405
5.0639,320
5.0639,259
5.0639,250
5.0639,295
5.0639,369
5.0639,436
5.0777,473
5.0797,478
5.0817,465
5.0837,451
5.0858,460
5.0878,503
5.0878,570
5.0878,604
5.0878,606
5.0955,603
5.0955,576
5.1003,530
5.1023,503
5.1033,519
5.1054,570
5.109,605
5.109,606
5.1116,606
5.1116,602
5.1155,575
5.1155,541
5.1155,532
5.1155,555
5.1155,587
5.1155,580
5.1273,499
5.1293,352
5.1293,176
5.1293,28
5.1369,27
5.1369,26
5.1401,53
5.1431,132
5.1431,206
5.1431,243
5.148,245
5.148,232
5.148,231
5.148,265
5.1568,331
5.1589,406
5.1589,458
5.1589,468
5.1639,439
5.166,393
5.1682,362
5.1682,371
5.1682,421
5.1747,495
5.1767,561
5.1791,588
5.1791,575
5.1826,536
5.185,499
5.185,495
5.185,534
5.1905,599
5.1905,606
5.1905,607
5.1905,606
5.1905,606
5.1905,605
5.1905,605
5.2033,606
5.207,608
5.2075,608
5.2075,608
5.2075,608
5.2075,607
5.2075,608
5.2075,608
5.2075,607
5.2222,608
5.2222,608
5.2222,608
5.2222,608
5.2222,608
5.2222,608
5.2222,608
5.2222,608
5.2379,608
5.2399,608
5.2399,608
5.2399,608
5.2399,608
5.2399,608
5.2399,608
5.2399,608
5.2539,608
5.2562,608
5.2562,608
5.2562,608
5.2562,609
5.2562,608
5.2562,608
5.2562,608
5.2699,609
5.2719,609
5.2739,608
5.2765,608
5.2765,609
5.2796,609
5.2796,609
5.2796,609
5.286,608
5.288,609
5.29,608
5.29,609
5.29,609
5.29,608
5.29,608
5.29,608
5.3021,608
5.3052,608
5.306,608
5.306,608
5.3098,608
5.3119,608
5.3139,608
5.3159,608
5.3188,608
5.3188,608
5.3188,608
5.3188,608
5.3188,608
5.3188,608
5.3188,608
5.3188,607
5.3337,608
5.3337,607
5.3337,608
5.3337,608
5.3337,608
5.3337,607
5.3337,607
5.3337,608
5.3496,607
5.3522,607
5.3539,607
5.3571,608
5.3587,608
5.3603,608
5.363,608
5.3647,607
5.367,606
5.3689,606
5.3707,606
5.373,607
5.373,607
5.3759,607
5.3779,607
5.3809,607
5.3829,605
5.3829,599
5.3829,592
5.3829,602
5.3904,605
5.3904,606
5.3904,606
5.3967,605
5.3987,593
5.4007,553
5.4007,521
5.4039,526
5.4039,562
5.4039,602
5.4039,605
5.4128,603
5.4128,574
5.4128,522
5.4128,478
5.4128,467
5.4128,497
5.4128,551
5.4128,592
5.4289,597
5.43,564
5.432,503
5.4341,447
5.4364,422
5.4384,441
5.4384,491
5.4384,544
5.4446,566
5.4446,545
5.4446,490
5.4446,430
5.4446,393
5.4446,397
5.4562,442
5.4582,499
5.4602,534
5.4602,526
5.4602,481
5.4602,420
5.4602,372
5.4602,365
5.4602,397
5.4602,453
5.4763,499
5.4763,507
5.4763,472
5.4763,413
5.4763,358
5.4763,335
5.4763,358
5.4763,410
5.4922,463
5.4922,486
5.4922,466
5.4922,412
5.4922,352
5.4922,317
5.5041,323
5.5041,366
5.5081,422
5.5081,458
5.5081,452
5.5081,407
5.5081,347
5.5081,301
5.5081,293
5.5081,328
5.5239,384
5.5239,429
5.5239,438
5.5239,404
5.5239,345
5.5239,291
5.5239,271
5.5239,292
5.5401,346
5.5401,399
5.5401,419
5.5401,395
5.5401,339
5.5401,276
5.5401,239
5.5401,245
5.5563,291
5.5585,349
5.5585,386
5.5585,381
5.5585,335
5.5585,275
5.5585,230
5.5585,225
5.5723,262
5.5723,324
5.5723,376
5.5723,388
5.5723,359
5.5723,304
5.5723,253
5.5723,236
5.5882,264
5.5882,324
5.5882,386
5.5882,418
5.5882,406
5.5882,361
5.5882,311
5.5882,288
5.6052,308
5.6052,366
5.6052,435
5.6052,479
5.6052,478
5.6052,435
5.6052,375
5.6052,331
5.62,326
5.62,365
5.62,424
5.62,471
5.62,478
5.62,440
5.62,377
5.62,321
5.6359,300
5.6359,325
5.6359,381
5.6359,437
5.6359,459
5.6359,436
5.6359,381
5.6359,321
5.6518,288
5.6518,300
5.6518,349
5.6518,405
5.6518,435
5.6518,417
5.6518,353
5.6518,267
5.6678,192
5.6678,154
5.6678,158
5.6678,189
5.6678,217
5.6678,212
5.6678,170
5.6678,109
5.6838,63
5.6838,58
5.6838,114
5.6838,217
5.693,321
5.695,382
5.697,381
5.6991,332
5.7011,268
5.7031,226
5.7041,227
5.7062,269
5.7062,324
5.7062,357
5.7062,348
5.7151,299
5.7172,236
5.7172,191
5.7172,188
5.7172,230
5.7232,293
5.7232,344
5.7232,352
5.7309,316
5.7309,254
5.7309,198
5.7309,178
5.7309,205
5.7309,265
5.7309,323
5.7309,346
5.7468,322
5.7468,262
5.7468,199
5.7468,164
5.7547,175
5.7567,227
5.7587,291
5.7587,327
5.7625,312
5.7633,253
5.7633,177
5.7633,121
5.7633,113
5.7633,153
5.7742,217
5.7762,275
5.7782,292
5.7782,262
5.7782,206
5.7782,154
5.7782,134
5.7782,160
5.7895,219
5.7895,279
5.7949,306
5.7954,288
5.7954,236
5.8004,175
5.8024,140
5.8044,151
5.8044,201
5.8082,264
5.8115,305
5.812,304
5.814,262
5.816,204
5.818,161
5.82,155
5.822,195
5.8241,257
5.8258,306
5.8258,318
5.8258,286
5.8258,227
5.8258,173
5.8258,153
5.8258,179
5.8258,236
5.8418,296
5.8418,322
5.8467,303
5.8467,250
5.8503,191
5.8503,157
5.8503,167
5.8503,216
5.8589,278
5.8589,317
5.8618,314
5.8653,271
5.8661,214
5.869,174
5.871,175
5.8741,219
5.8741,285
5.8741,337
5.8788,344
5.8788,307
5.8788,243
5.8851,186
5.8871,166
5.8889,193
5.8906,252
5.8923,311
5.894,336
5.8973,314
5.8992,257
5.9013,196
5.9013,163
5.9048,176
5.9048,230
5.9082,296
5.9102,337
5.9138,331
5.9143,284
5.9143,223
5.9143,178
5.92,176
5.9247,220
5.9247,287
5.9264,342
5.9281,354
5.9281,320
5.9281,261
5.9281,207
5.9363,189
5.9363,218
5.9363,278
5.9418,339
5.9418,363
5.9458,340
5.9458,284
5.95,223
5.9517,189
5.9537,203
5.9561,255
5.9581,319
5.9601,358
5.9601,350
5.9601,303
5.9663,241
5.9691,195
5.97,193
5.9731,235
5.9744,298
5.9762,348
5.9762,355
5.9762,319
5.9762,259
5.9843,206
5.9843,189
5.9843,218
5.9896,279
5.9926,339
5.9946,363
5.9967,340
5.9987,284
6.0007,223
6.0027,191
6.0051,205
6.0051,259
6.0092,323
6.0092,363
6.0092,357
6.0092,309
6.0092,245
6.0176,200
6.0176,197
6.0217,238
6.0217,302
6.026,353
6.026,362
6.026,326
6.026,264
6.0343,210
6.0343,193
6.0384,223
6.0384,285
6.0426,347
6.0426,372
6.0426,351
6.0426,294
6.0509,233
6.0531,199
6.0531,211
6.0552,262
6.0591,323
6.0591,361
6.0591,352
6.0591,305
6.0671,243
6.0671,199
6.0671,198
6.0723,240
6.0723,305
6.0774,357
6.0794,366
6.0794,330
6.0794,269
6.0837,215
6.0837,198
6.0884,228
6.0884,290
6.0918,352
6.0918,377
6.0918,356
6.0918,301
6.1011,242
6.1023,210
6.105,224
6.105,276
6.1084,338
6.1084,375
6.1114,368
6.1114,320
6.1168,259
6.1191,215
6.1191,214
6.1219,257
6.1251,321
6.1261,371
6.1281,378
6.1301,343
6.1321,282
6.1332,230
6.1352,213
6.1384,243
6.1384,303
6.1417,361
6.1445,383
6.1465,358
6.1486,301
6.1501,241
6.1521,209
6.1553,222
6.1553,275
6.1584,339
6.1584,379
6.1584,374
6.1643,327
6.1663,264
6.1683,220
6.1703,217
6.1718,258
6.1745,320
6.1745,368
6.1745,374
6.1745,337
6.1828,274
6.1848,218
6.1868,199
6.1889,227
6.1909,286
6.1923,345
6.1923,368
6.1923,345
6.199,289
6.199,229
6.199,198
6.2053,214
6.207,270
6.2091,336
6.2111,377
6.2131,370
6.2151,323
6.2172,261
6.2172,216
6.2207,216
6.2214,260
6.2234,325
6.2234,377
6.2234,388
6.2234,353
6.2329,292
6.2329,239
6.2329,221
6.2382,250
6.2402,311
6.2432,370
6.2432,393
6.2473,373
6.2483,318
6.2483,258
6.2483,225
6.2551,239
6.2572,292
6.2572,355
6.2572,392
6.2572,385
6.2649,337
6.2649,275
6.2649,231
6.2649,229
6.273,272
6.273,336
6.273,388
6.273,399
6.273,365
6.2814,305
6.2814,249
6.2814,227
6.2883,248
6.2901,296
6.2901,336
6.2901,334
6.2901,279
6.2984,189
6.2984,95
6.2984,35
6.3052,28
6.3068,72
6.3068,133
6.3068,165
6.3068,144
6.315,83
6.315,27
6.315,27
6.315,26
6.323,75
6.323,153
6.323,221
6.323,248
6.3311,228
6.3311,181
6.3311,135
6.3311,121
6.3391,153
6.3391,215
6.3425,278
6.3445,310
6.3465,297
6.3476,248
6.3496,194
6.3516,167
6.3553,182
6.3553,235
6.3553,302
6.3553,345
6.3625,344
6.3648,306
6.3648,250
6.3685,210
6.3685,211
6.3739,255
6.3751,320
6.3761,372
6.3794,385
6.3811,354
6.3828,298
6.3844,250
6.386,235
6.3878,263
6.3878,322
6.3878,380
6.3878,405
6.3958,386
6.4005,336
6.4005,281
6.4025,252
6.4052,266
6.4072,318
6.4092,379
6.4112,419
6.4133,415
6.4153,371
6.4173,313
6.4193,271
6.4214,267
6.4214,307
6.4245,369
6.4265,417
6.4285,426
6.4285,395
6.4335,338
6.4335,285
6.4356,269
6.4356,295
6.4356,351
6.4425,407
6.4425,430
6.4465,409
6.4485,354
6.4505,296
6.4525,264
6.4546,274
6.4566,323
6.4604,382
6.4632,418
6.4638,412
6.4661,367
6.4682,305
6.4682,263
6.4682,260
6.4724,298
6.4742,355
6.4762,399
6.4777,405
6.4805,369
6.4805,309
6.4805,257
6.4805,239
6.4805,266
6.4898,323
6.4918,380
6.4918,405
6.4973,385
6.4973,331
6.4993,271
6.4993,239
6.5055,251
6.5055,300
6.5055,361
6.5104,397
6.5104,389
6.5139,343
6.5159,282
6.5179,238
6.5199,234
6.5214,273
6.5235,333
6.5255,380
6.5275,390
6.5275,357
6.5275,299
6.5335,250
6.5355,234
6.5395,261
6.5395,319
6.5423,378
6.5423,403
6.5423,383
6.5423,332
6.5493,275
6.5514,243
6.5531,257
6.5531,308
6.5531,366
6.5531,403
6.5531,397
6.5531,352
6.5531,293
6.5683,252
6.5704,249
6.5724,289
6.5744,351
6.5744,399
6.5744,409
6.5744,377
6.5744,321
6.5841,271
6.5861,256
6.5881,286
6.5901,344
6.5921,402
6.5921,428
6.5921,409
6.5921,358
6.5998,303
6.5998,273
6.5998,285
6.6058,335
6.6058,394
6.6058,429
6.6058,424
6.6058,381
6.6156,323
6.6156,280
6.6156,280
6.6156,318
6.6156,377
6.6156,425
6.6156,432
6.6156,397
6.6318,339
6.6318,286
6.6367,267
6.6388,293
6.6388,348
6.6417,402
6.6437,424
6.6458,404
6.6475,351
6.6495,294
6.6516,264
6.6536,275
6.6556,322
6.6576,380
6.6576,416
6.6627,407
6.6647,362
6.6667,303
6.6688,262
6.6688,259
6.6688,300
6.6688,360
6.6688,407
6.6785,417
6.6785,385
6.6785,329
6.6785,278
6.6785,263
6.6785,291
6.6901,352
6.6901,412
6.6943,439
6.6943,423
6.6943,375
6.6943,324
6.7021,297
6.7046,316
6.7057,371
6.7077,437
6.7097,482
6.7097,485
6.7148,451
6.7148,403
6.7148,373
6.7206,383
6.7206,435
6.7206,505
6.7255,560
6.7277,570
6.7298,537
6.7318,476
6.7338,420
6.7358,398
6.7378,421
6.7398,475
6.7416,530
6.7436,550
6.7456,525
6.7476,467
6.7476,406
6.7476,373
6.7476,383
6.7573,432
6.7593,490
6.7593,523
6.7613,512
6.7633,462
6.7653,397
6.7673,349
6.7694,342
6.7731,377
6.7731,432
6.7772,475
6.7792,479
6.7812,439
6.7812,373
6.7852,317
6.7852,296
6.789,322
6.791,378
6.7931,434
6.7951,454
6.7971,429
6.7991,371
6.8011,310
6.8032,277
6.8049,290
6.8059,339
6.808,397
6.8113,431
6.8113,420
6.8133,371
6.8173,307
6.8173,264
6.8209,261
6.8229,301
6.8252,359
6.8269,395
6.8292,390
6.8311,342
6.8332,274
6.8347,217
6.8367,200
6.8367,229
6.8393,289
6.8393,349
6.8393,375
6.8393,355
6.8393,302
6.8393,246
6.8524,214
6.8524,227
6.8565,278
6.859,339
6.8614,376
6.8632,372
6.864,329
6.864,271
6.869,231
6.8724,233
6.8729,275
6.874,340
6.8772,392
6.8792,403
6.8792,371
6.8827,311
6.8848,255
6.8868,230
6.8891,244
6.8904,282
6.8904,312
6.8904,306
6.8904,255
6.9001,177
6.9001,102
6.9021,65
6.9051,77
6.9073,138
6.9085,215
6.9085,277
6.9085,303
6.9143,297
6.9163,275
6.9184,258
6.9204,274
6.9224,322
6.9259,383
6.9274,429
6.9274,434
6.9296,397
6.933,339
6.933,290
6.9364,278
6.9382,314
6.9403,383
6.9423,453
6.9443,490
6.9463,481
6.95,435
6.95,381
6.9521,353
6.9553,366
6.9564,415
6.9581,474
6.9615,507
6.9632,495
6.9648,444
6.9665,380
6.9665,335
6.9665,332
6.973,373
6.9735,434
6.977,481
6.9788,487
6.9803,449
6.9803,384
6.9803,328
6.9863,308
6.9881,334
6.9903,389
6.9923,442
6.9944,462
6.9973,436
6.9981,378
7.0024,317
7.0024,284
7.0048,298
7.0062,349
7.0082,409
7.0102,443
7.0122,433
7.0139,382
7.0162,318
7.0182,273
7.0202,270
7.0213,312
7.0233,373
7.0254,420
7.0294,426
7.0294,388
7.033,325
7.035,271
7.037,253
7.0394,282
7.0408,341
7.0408,396
7.0408,417
7.0453,392
7.0453,335
7.0453,275
7.0519,244
7.0552,258
7.0552,309
7.0593,369
7.0593,403
7.0613,392
7.0613,342
7.0613,277
7.0613,233
7.0696,230
7.0713,271
7.0737,333
7.0757,380
7.0777,386
7.0797,347
7.0817,284
7.0838,229
7.0855,211
7.0876,239
7.0896,298
7.0916,354
7.0936,374
7.0956,348
7.0977,291
7.0998,230
7.1015,198
7.1015,213
7.1064,264
7.1084,324
7.1084,359
7.1084,348
7.1137,297
7.1158,233
7.1175,189
7.1175,187
7.1175,230
7.1235,294
7.1256,343
7.1256,348
7.1256,310
7.1256,248
7.1335,194
7.1355,178
7.1395,207
7.1395,267
7.1416,324
7.1436,345
7.1457,318
7.1477,257
7.1495,192
7.1515,156
7.1535,166
7.1561,216
7.1581,276
7.1581,311
7.1581,299
7.1581,246
7.1652,178
7.1652,130
7.1652,127
7.1728,167
7.1748,229
7.1748,277
7.1788,284
7.1808,244
7.1808,180
7.1808,125
7.1808,109
7.1887,140
7.1907,202
7.1927,263
7.1947,288
7.1965,266
7.1977,210
7.1998,150
7.2018,120
7.2038,139
7.2063,195
7.2084,263
7.2104,305
7.2124,298
7.2124,251
7.2124,189
7.2124,147
7.2124,149
7.2228,196
7.2248,264
7.2268,317
7.2283,328
7.2301,292
7.2301,233
7.2301,182
7.2367,170
7.2393,202
7.2414,268
7.2414,329
7.2451,355
7.2451,333
7.2451,277
7.2451,218
7.2451,189
7.2451,208
7.2561,265
7.2581,332
7.2581,373
7.2621,367
7.2641,318
7.2661,257
7.2682,216
7.2682,218
7.2722,265
7.2744,332
7.2744,385
7.2744,393
7.2803,356
7.282,293
7.2837,241
7.287,227
7.2886,260
7.2903,323
7.293,383
7.295,407
7.295,382
7.297,326
7.2991,267
7.2991,237
7.304,254
7.3072,309
7.3092,372
7.3092,409
7.3112,400
7.3132,352
7.3153,290
7.3173,248
7.3173,251
7.3225,297
7.3225,362
7.3225,412
7.3225,420
7.3225,383
7.3225,323
7.3225,271
7.3225,258
7.3385,291
7.3405,354
7.3426,412
7.3447,435
7.3472,411
7.3487,354
7.3508,295
7.3528,267
7.3546,284
7.3546,339
7.3546,402
7.3546,438
7.363,428
7.3636,379
7.3636,318
7.3636,275
7.3706,276
7.3726,321
7.3746,384
7.3767,432
7.3787,436
7.3807,396
7.3827,333
7.3848,279
7.3865,265
7.3865,295
7.3905,357
7.393,415
7.395,437
7.3971,413
7.3991,356
7.4011,297
7.4026,269
7.4046,286
7.4066,341
7.4066,403
7.4066,439
7.4066,428
7.4066,377
7.4066,313
7.4184,266
7.4204,259
7.4224,289
7.4244,334
7.4264,362
7.4285,352
7.4305,307
7.4325,245
7.4343,197
7.4363,190
7.4383,230
7.4403,299
7.4403,364
7.4444,393
7.4464,375
7.4485,323
7.4502,269
7.4523,242
7.4542,259
7.4562,314
7.4583,377
7.4603,414
7.4623,409
7.4643,366
7.4661,310
7.4681,274
7.4701,279
7.4721,324
7.4741,388
7.4762,439
7.4782,451
7.4782,421
7.482,371
7.4841,327
7.4841,317
7.4841,349
7.4841,407
7.4925,460
7.4945,477
7.4965,449
7.4981,381
7.5001,305
7.5001,251
7.5039,241
7.5069,273
7.509,324
7.511,360
7.513,360
7.514,332
7.514,294
7.514,280
7.514,316
7.514,401
7.514,504
7.514,586
7.529,604
7.5313,596
7.532,558
7.534,520
7.5367,512
7.538,542
7.5411,598
7.5432,606
7.5452,607
7.5452,606
7.5477,604
7.5511,597
7.5522,592
7.5549,604
7.5566,606
7.5591,607
7.561,608
7.561,607
7.5631,607
7.5651,606
7.569,606
7.569,606
7.5727,607
7.5747,608
7.5747,608
7.5784,608
7.5804,608
7.5824,607
7.5824,607
7.5824,607
7.5885,607
7.5885,607
7.5885,608
7.5946,607
7.5951,607
7.5972,607
7.5992,607
7.5992,607
7.6036,607
7.6056,608
7.6071,608
7.6091,608
7.613,608
7.613,608
7.6169,608
7.6169,608
7.6201,608
7.6226,608
7.6249,608
7.6266,609
7.6283,609
7.6283,608
7.6314,608
7.6314,608
7.6367,608
7.6389,609
7.641,608
7.6425,609
7.6448,608
7.6468,608
7.6484,608
7.6504,608
7.6529,607
7.6547,608
7.6559,608
7.6581,608
7.6601,607
7.6611,607
7.6631,605
7.6651,585
7.6671,541
7.6692,514
7.6715,521
7.6715,546
7.6765,561
7.6776,545
7.6806,493
7.6826,425
7.6846,365
7.6857,341
7.6882,360
7.6902,408
7.6922,452
7.6922,463
7.6922,431
7.6922,370
7.6922,305
7.7021,269
7.7021,275
7.7021,318
7.7074,369
7.7074,395
7.7074,379
7.7074,327
7.7074,262
7.7183,217
7.7183,212
7.7183,249
7.7183,305
7.7183,346
7.7283,347
7.7304,308
7.7324,246
7.7334,194
7.7334,178
7.738,205
7.738,263
7.738,317
7.738,337
7.738,313
7.738,258
7.75,202
7.752,174
7.755,189
7.7571,242
7.7571,302
7.7571,338
7.7571,329
7.765,282
7.7658,223
7.7658,181
7.7658,181
7.7658,223
7.7658,284
7.7658,332
7.7658,338
7.781,301
7.783,243
7.785,193
7.787,178
7.789,207
7.7911,267
7.7931,322
7.7951,343
7.7969,319
7.7989,263
7.8009,205
7.8029,177
7.8049,191
7.8069,243
7.8075,302
7.8095,336
7.8125,325
7.8142,277
7.8159,217
7.819,175
7.8206,174
7.8222,217
7.8239,279
7.8259,325
7.8279,330
7.8279,292
7.8279,231
7.8279,179
7.8279,163
7.8279,192
7.8279,251
7.8422,307
7.844,327
7.846,302
7.848,246
7.85,187
7.852,158
7.854,173
7.8561,226
7.8581,287
7.8598,324
7.8598,314
7.8598,266
7.8598,205
7.8598,165
7.8598,166
7.8717,210
7.8737,274
7.8755,322
7.8775,328
7.8795,291
7.8816,231
7.8836,179
7.8857,165
7.8857,196
7.8857,255
7.8915,310
7.8915,330
7.8915,303
7.8915,245
7.8915,186
7.8915,157
7.8915,173
7.8915,225
7.9116,287
7.9116,322
7.9116,310
7.9146,260
7.9146,198
7.9146,156
7.9211,155
7.9231,197
7.9247,259
7.9257,306
7.9285,311
7.9305,273
7.9325,212
7.9346,160
7.9366,145
7.9386,177
7.9406,237
7.9426,295
7.9447,317
7.9467,293
7.9487,237
7.9507,179
7.9528,149
7.9545,167
7.9566,221
7.9586,284
7.9606,321
7.9626,312
7.9647,264
7.9667,204
7.9687,164
7.9705,166
7.9725,211
7.9746,275
7.9766,323
7.9786,329
7.9806,291
7.9827,231
7.9847,180
7.9864,167
7.9885,198
7.9905,259
7.9925,316
7.9945,337
7.9966,313
7.9986,257
8.0006,199
8.0024,172
8.0024,191
8.0061,247
8.0076,311
8.0096,347
8.0117,338
8.0137,289
8.0157,229
8.0177,188
8.0197,189
8.0217,233
8.0237,296
8.0258,343
8.0278,347
8.0278,308
8.0278,248
8.0334,197
8.0334,183
8.0334,214
8.0334,272
8.0334,325
8.0334,344
8.0334,317
8.0334,260
8.0494,203
8.0514,176
8.0534,193
8.0555,248
8.0575,310
8.0595,346
8.0595,336
8.0595,289
8.067,229
8.069,190
8.071,194
8.0721,240
8.0739,305
8.0739,354
8.0739,360
8.0739,322
8.0823,263
8.0823,214
8.0823,202
8.0882,236
8.0882,299
8.0882,357
8.0882,378
8.0882,355
8.0981,299
8.0981,243
8.0981,216
8.1051,234
8.1071,288
8.1076,349
8.1096,383
8.1117,373
8.115,325
8.115,264
8.115,225
8.1202,228
8.1202,273
8.1202,337
8.1202,384
8.1202,389
8.1311,352
8.1321,292
8.1337,241
8.1368,229
8.1384,261
8.14,322
8.1416,379
8.1416,401
8.1455,377
8.1455,323
8.1455,264
8.1455,233
8.1455,245
8.1455,290
8.1455,337
8.1455,350
8.1614,313
8.1614,231
8.1614,136
8.1614,65
8.1614,47
8.1614,80
8.1614,143
8.1614,199
8.1773,217
8.1773,197
8.1773,162
8.1773,149
8.1773,175
8.1773,240
8.1773,322
8.1929,389
8.1929,411
8.1929,381
8.1929,319
8.1929,256
8.1929,224
8.1929,240
8.1929,295
8.2088,358
8.2108,393
8.2129,384
8.2149,337
8.2169,277
8.2189,238
8.2209,241
8.2229,286
8.2247,349
8.2247,394
8.2247,398
8.2247,357
8.2247,295
8.2333,244
8.2353,231
8.2374,263
8.2404,324
8.2404,380
8.2441,400
8.2462,374
8.2482,318
8.2502,259
8.2522,231
8.2543,248
8.2563,302
8.2576,363
8.2576,396
8.2576,384
8.2576,335
8.2576,273
8.2576,232
8.2705,235
8.2723,279
8.2723,342
8.2723,387
8.2723,391
8.2723,351
8.2821,289
8.2842,238
8.2862,225
8.288,257
8.29,318
8.292,374
8.292,393
8.292,367
8.292,310
8.292,253
8.292,226
8.3039,245
8.3039,300
8.3078,361
8.3078,395
8.3078,383
8.3078,334
8.3078,272
8.3078,231
8.32,233
8.32,277
8.3237,341
8.3257,387
8.3278,391
8.3298,352
8.3318,291
8.3338,240
8.3358,226
8.3358,257
8.3358,317
8.3358,372
8.3358,389
8.3358,363
8.3358,304
8.3358,245
8.352,217
8.352,234
8.3553,287
8.3553,348
8.3553,381
8.3553,369
8.365,318
8.365,256
8.3677,214
8.3677,217
8.3677,261
8.3677,324
8.3677,370
8.3677,374
8.3677,334
8.3677,273
8.3835,221
8.3855,209
8.3875,241
8.3895,302
8.3916,358
8.3936,377
8.3956,352
8.3976,295
8.3994,238
8.4014,211
8.4034,231
8.4055,287
8.408,350
8.41,386
8.412,376
8.414,329
8.4155,269
8.4176,231
8.4196,235
8.4216,282
8.4216,348
8.4259,394
8.4259,399
8.4259,361
8.4317,301
8.4317,253
8.4317,242
8.4317,276
8.4317,338
8.4413,395
8.4434,415
8.4454,390
8.4475,334
8.4475,277
8.4475,252
8.4475,272
8.4475,327
8.4475,389
8.4475,423
8.4475,411
8.4635,363
8.4635,303
8.4635,265
8.4635,269
8.4635,314
8.4635,378
8.4635,425
8.4635,429
8.4795,390
8.4816,330
8.4836,280
8.4856,267
8.4876,299
8.4897,358
8.4917,413
8.4937,432
8.4955,406
8.4975,350
8.4995,292
8.5015,266
8.5035,285
8.5056,340
8.5081,401
8.5101,435
8.5111,422
8.5131,372
8.5151,312
8.5172,272
8.5192,275
8.5212,320
8.5232,382
8.527,428
8.527,430
8.527,390
8.527,328
8.527,276
8.527,264
8.527,295
8.527,355
8.5429,409
8.5429,427
8.5429,401
8.5429,344
8.5429,287
8.5429,262
8.5429,281
8.5429,337
8.5587,397
8.5587,431
8.5587,418
8.5587,367
8.5587,305
8.5587,265
8.5587,268
8.572,313
8.5744,376
8.5768,423
8.5779,427
8.5795,388
8.5827,327
8.5843,275
8.5859,262
8.5875,293
8.5905,352
8.593,405
8.595,422
8.597,395
8.5991,337
8.5991,280
8.5991,254
8.5991,273
8.6064,327
8.6084,387
8.6105,420
8.6125,408
8.614,357
8.616,295
8.618,255
8.62,258
8.6217,303
8.6217,366
8.6217,411
8.6217,414
8.6299,375
8.6299,315
8.6299,264
8.6299,252
8.6299,285
8.6299,346
8.6299,400
8.6299,419
8.646,393
8.646,336
8.646,278
8.646,251
8.646,269
8.646,322
8.646,382
8.646,416
8.662,403
8.662,353
8.662,291
8.662,251
8.662,252
8.6717,297
8.6717,360
8.6717,406
8.6777,411
8.6777,371
8.6777,309
8.6777,258
8.6777,243
8.6777,274
8.6777,331
8.6777,384
8.6935,400
8.6935,370
8.6935,311
8.6935,253
8.6935,225
8.6935,243
8.6935,298
8.7086,360
8.7097,394
8.7097,384
8.7097,335
8.7097,275
8.7097,236
8.7097,241
8.7097,287
8.7097,352
8.7257,399
8.7257,403
8.7257,363
8.7257,302
8.7257,251
8.7257,240
8.7257,276
8.7257,338
8.7417,397
8.7417,419
8.7417,393
8.7417,337
8.7417,280
8.7417,254
8.7417,272
8.7417,326
8.7575,386
8.7575,417
8.7575,404
8.7575,352
8.7575,289
8.7575,250
8.7575,253
8.7575,299
8.7749,364
8.7749,411
8.7749,415
8.7749,375
8.7749,314
8.7749,262
8.7749,249
8.7749,283
8.7896,345
8.7896,402
8.7896,424
8.7896,401
8.7896,347
8.7896,288
8.7896,257
8.7896,268
8.8056,311
8.8089,354
8.8089,362
8.8089,319
8.8089,234
8.8089,140
8.8089,71
8.8212,57
8.8212,96
8.8212,164
8.8212,222
8.8212,244
8.8212,230
8.8333,204
8.8333,198
8.837,226
8.839,289
8.8413,367
8.8432,428
8.8454,447
8.8472,415
8.8489,351
8.8506,288
8.8527,257
8.8547,274
8.8568,328
8.8568,391
8.8568,427
8.8633,418
8.8652,371
8.8671,312
8.869,275
8.8709,279
8.8729,326
8.8743,388
8.8763,434
8.8783,436
8.8803,397
8.8824,335
8.8842,284
8.8842,272
8.8842,304
8.8842,364
8.8842,418
8.8842,436
8.8842,409
8.8842,351
8.9003,294
8.9024,268
8.9044,288
8.9044,344
8.9088,405
8.9088,439
8.9088,427
8.9088,377
8.9162,315
8.9162,274
8.9162,277
8.9162,322
8.9162,382
8.9162,425
8.9162,426
8.9162,384
8.9322,322
8.9322,271
8.9322,259
8.9322,292
8.9322,353
8.9322,407
8.9322,424
8.9322,397
8.9483,338
8.9504,279
8.9524,254
8.9544,272
8.9564,326
8.9584,386
8.9604,418
8.9625,403
8.9642,352
8.9654,290
8.9675,250
8.9695,254
8.9722,299
8.9748,362
8.9764,406
8.978,409
8.9796,368
8.9828,304
8.9848,252
8.9868,238
8.9888,270
8.9909,328
8.9929,382
8.9949,399
8.9958,368
8.9989,308
9.0009,247
9.0029,217
9.0049,233
9.0069,286
9.009,347
9.0107,379
9.0127,366
9.0148,314
9.0168,251
9.0188,211
9.0208,213
9.0228,256
9.0248,317
9.0266,361
9.0266,361
9.0266,319
9.0266,257
9.0266,205
9.0266,193
9.0266,226
9.0266,287
9.0425,343
9.0445,361
9.0465,334
9.0465,277
9.0465,220
9.0465,194
9.0465,214
9.0465,271
9.058,334
9.0601,370
9.0621,359
9.0641,311
9.0662,251
9.0682,213
9.0702,219
9.0722,267
9.074,332
9.074,380
9.074,385
9.074,346
9.074,286
9.074,238
9.074,228
9.074,262
9.0897,325
9.0917,381
9.0937,401
9.0957,374
9.0978,317
9.0998,259
9.1018,232
9.1038,252
9.1056,307
9.1076,369
9.1091,401
9.1111,389
9.1131,338
9.1151,277
9.1172,238
9.1201,242
9.123,289
9.1235,354
9.1235,400
9.1235,405
9.1235,366
9.1235,304
9.1235,255
9.1235,244
9.1391,278
9.1391,341
9.1391,397
9.1391,417
9.146,390
9.146,334
9.146,277
9.146,251
9.1552,272
9.1572,328
9.1572,390
9.1592,423
9.1612,411
9.1632,361
9.1673,299
9.1673,261
9.1693,264
9.1713,310
9.1733,372
9.1753,417
9.1774,419
9.1794,380
9.1814,321
9.1835,272
9.1852,261
9.1872,296
9.1893,356
9.1913,410
9.1933,426
9.1953,398
9.1973,340
9.2011,282
9.2031,255
9.2031,274
9.2052,329
9.2072,390
9.2092,422
9.2112,409
9.2132,358
9.217,297
9.219,258
9.221,262
9.223,307
9.2251,370
9.2271,414
9.2291,416
9.2291,377
9.2329,316
9.2349,265
9.2369,253
9.2389,286
9.2409,347
9.2429,400
9.245,418
9.247,391
9.2487,335
9.2508,279
9.2528,254
9.2548,273
9.2569,327
9.2589,388
9.2609,421
9.2609,408
9.2645,358
9.2671,298
9.2687,259
9.2704,264
9.2721,310
9.2737,373
9.2768,417
9.2768,420
9.2803,380
9.2823,319
9.2843,269
9.2864,259
9.2864,293
9.2899,354
9.2899,409
9.2899,426
9.296,397
9.296,340
9.296,282
9.296,257
9.296,275
9.296,330
9.296,392
9.3094,425
9.3117,412
9.3117,359
9.3117,295
9.3117,253
9.3117,254
9.3117,298
9.3117,359
9.3117,402
9.3274,403
9.3274,362
9.3274,299
9.3274,249
9.3274,236
9.3274,269
9.3274,328
9.3274,383
9.3435,403
9.3455,376
9.3475,320
9.3495,263
9.3516,236
9.3536,255
9.3556,309
9.3576,371
9.3614,404
9.3614,394
9.3651,346
9.3658,287
9.3678,249
9.3698,254
9.3718,301
9.3739,364
9.3754,409
9.3774,414
9.3794,376
9.3815,317
9.3835,267
9.3855,255
9.3876,287
9.3896,346
9.3914,398
9.3934,415
9.3954,388
9.3974,334
9.3995,278
9.4015,253
9.4035,271
9.4055,324
9.4073,383
9.4112,416
9.4112,404
9.4112,354
9.4112,294
9.4112,257
9.4112,263
9.4223,309
9.4233,373
9.4253,417
9.4273,417
9.4294,373
9.4334,304
9.4334,240
9.4354,208
9.4392,214
9.4392,245
9.4392,271
9.4392,266
9.4392,224
9.4392,160
9.4503,104
9.4503,87
9.4549,122
9.4549,201
9.4549,293
9.4549,367
9.4549,390
9.4549,366
9.4549,319
9.4549,286
9.4707,291
9.4707,333
9.4707,390
9.4707,429
9.4707,428
9.4707,386
9.4707,325
9.4707,276
9.4867,266
9.4867,302
9.4867,365
9.4867,421
9.4867,442
9.4867,417
9.4991,362
9.4991,306
9.5027,282
9.5027,302
9.5027,356
9.5027,416
9.51,449
9.51,436
9.51,386
9.51,326
9.5186,286
9.5186,291
9.5216,336
9.5237,396
9.5257,439
9.5257,440
9.5257,399
9.5257,337
9.5346,287
9.5346,275
9.5346,306
9.5346,365
9.5346,417
9.5346,433
9.5346,405
9.5346,346
9.5504,288
9.5524,262
9.5544,281
9.5564,336
9.5584,396
9.5604,428
9.5625,413
9.5645,360
9.5663,297
9.5683,256
9.5703,259
9.5723,304
9.5743,366
9.5764,410
9.5784,413
9.5804,372
9.5821,310
9.5842,258
9.5862,243
9.5882,274
9.5902,331
9.5923,383
9.5943,401
9.5963,371
9.5981,313
9.6003,255
9.6024,230
9.6044,250
9.6064,307
9.6064,367
9.6101,398
9.6101,384
9.614,332
9.614,269
9.614,228
9.614,230
9.614,275
9.614,337
9.614,381
9.614,382
9.6314,340
9.6334,278
9.6334,228
9.6334,215
9.639,248
9.641,309
9.643,363
9.645,380
9.6473,353
9.6481,294
9.6501,237
9.6501,211
9.6544,233
9.6556,290
9.6556,354
9.6556,387
9.6628,376
9.6638,326
9.6654,264
9.6687,225
9.6703,229
9.673,275
9.673,338
9.673,383
9.673,387
9.673,347
9.673,287
9.673,239
9.673,230
9.688,265
9.688,328
9.688,385
9.688,405
9.688,379
9.688,325
9.688,271
9.688,247
9.704,270
9.706,325
9.7081,386
9.7106,418
9.7126,404
9.7146,354
9.7167,294
9.7167,255
9.7201,259
9.7232,305
9.7232,369
9.7232,413
9.7232,416
9.7232,377
9.7232,316
9.7232,267
9.7361,257
9.7361,292
9.7361,353
9.7361,408
9.7361,428
9.7361,402
9.7361,347
9.7361,292
9.7522,268
9.7522,288
9.7556,344
9.7556,404
9.7556,435
9.7556,422
9.7556,371
9.7556,310
9.7688,271
9.7688,275
9.7688,319
9.7688,382
9.7688,427
9.7688,429
9.7688,387
9.7688,325
9.7839,274
9.7839,262
9.7839,297
9.7839,358
9.7839,412
9.7839,430
9.7839,404
9.7839,347
9.7997,290
9.7997,266
9.7997,285
9.7997,340
9.7997,399
9.8106,431
9.8126,419
9.8126,368
9.8153,308
9.8153,270
9.8153,275
9.8217,319
9.8237,381
9.8258,425
9.8278,427
9.8298,387
9.8313,327
9.8334,278
9.8334,268
9.8334,301
9.8334,362
9.8334,415
9.8334,431
9.8471,403
9.8471,344
9.8471,287
9.8471,262
9.8471,280
9.8471,335
9.8471,393
9.8471,425
9.8629,410
9.8629,359
9.8629,298
9.8687,260
9.8708,266
9.8728,313
9.8748,377
9.8768,422
9.8788,422
9.8808,380
9.8828,318
9.8849,267
9.8869,256
9.8889,289
9.8909,350
9.8929,403
9.8947,420
9.8947,393
9.8947,336
9.8947,280
9.8947,256
9.8947,276
9.8947,332
9.8947,391
9.9107,422
9.9107,407
9.9107,356
9.9107,292
9.9107,253
9.9107,257
9.9107,304
9.9107,367
9.9267,410
9.9267,411
9.9267,370
9.9317,307
9.9338,258
9.9369,247
9.9389,282
9.9409,344
9.9431,400
9.9436,418
9.9436,391
9.9436,334
9.9436,278
9.9436,254
9.9436,276
9.9436,333
9.9585,395
9.9585,428
9.9585,415
9.9585,366
9.9663,307
9.9683,271
9.9703,277
9.9724,325
9.9744,388
9.9764,432
9.9784,434
9.9804,394
9.9825,334
9.9845,285
9.9865,276
9.9885,311
9.9904,372
9.9904,427
9.9904,444
9.9904,416
9.9904,358
9.9904,300
10.0018,275
10.0038,296
10.0069,352
10.0079,411
10.0096,443
10.0128,430
10.0145,380
10.0161,320
10.0178,284
10.0178,292
10.0216,339
10.024,400
10.026,441
10.0281,437
10.0301,385
10.0321,308
10.0341,235
10.0361,196
10.0377,201
10.0377,237
10.0377,275
10.0377,284
10.0377,255
10.0377,202
10.0377,154
10.0377,141
10.0535,183
10.0535,272
10.0589,368
10.0609,429
10.0629,434
10.065,393
10.067,334
10.069,293
10.069,294
10.0731,335
10.0731,393
10.0772,436
10.0772,437
10.0792,397
10.0812,338
10.085,291
10.087,284
10.089,320
10.091,381
10.093,436
10.0951,453
10.0971,426
10.0991,369
10.1008,312
10.1028,287
10.1049,308
10.1069,362
10.1089,421
10.1089,452
10.1114,439
10.1134,389
10.117,329
10.119,291
10.121,297
10.123,343
10.125,405
10.1271,448
10.1291,449
10.1311,408
10.1328,347
10.1328,298
10.1328,288
10.1328,321
10.1328,380
10.1328,433
10.1328,449
10.1328,420
10.1489,362
10.1509,305
10.1509,280
10.1509,300
10.1561,353
10.1561,411
10.1561,441
10.1561,427
10.1649,376
10.1649,316
10.1649,278
10.1649,284
10.1649,329
10.1649,390
10.1649,434
10.1649,434
10.1809,392
10.1826,330
10.1826,280
10.1826,269
10.1885,301
10.1885,361
10.1885,412
10.1885,428
10.1968,399
10.1968,341
10.1968,284
10.2015,259
10.205,278
10.2072,333
10.2092,392
10.2092,422
10.2117,406
10.2137,354
10.2158,291
10.2178,250
10.2208,254
10.2208,298
10.2208,359
10.2267,402
10.2287,402
10.2307,361
10.2327,300
10.2348,251
10.2365,241
10.2386,275
10.2406,335
10.2426,389
10.2446,405
10.2467,376
10.2487,319
10.2507,261
10.2524,235
10.2524,256
10.2561,312
10.2581,373
10.2601,405
10.2601,391
10.2601,341
10.2601,281
10.2683,243
10.2683,249
10.2683,296
10.2683,360
10.2683,405
10.2683,408
10.2798,369
10.2818,309
10.2839,263
10.2859,254
10.2859,291
10.2895,352
10.2895,406
10.2895,424
10.2895,398
10.2895,342
10.2998,287
10.2998,265
10.2998,287
10.2998,343
10.2998,403
10.3107,434
10.3117,420
10.3137,369
10.3155,307
10.3155,270
10.3155,276
10.3155,323
10.3155,385
10.3155,430
10.3155,432
10.3155,391
10.3315,332
10.3315,284
10.3315,275
10.3315,310
10.3315,372
10.3315,427
10.3315,444
10.3315,416
10.3474,359
10.3474,302
10.3474,279
10.3474,300
10.3474,354
10.3474,414
10.3474,444
10.3474,430
10.3652,379
10.367,319
10.3687,281
10.3711,288
10.373,334
10.3749,396
10.3767,439
10.3787,440
10.3802,398
10.3819,337
10.3838,290
10.3856,280
10.389,315
10.389,376
10.389,429
10.3945,446
10.3966,417
10.3986,359
10.4006,302
10.4026,277
10.4046,297
10.4067,351
10.4087,409
10.4105,440
10.412,426
10.412,376
10.412,316
10.412,278
10.412,284
10.412,329
10.412,390
10.4269,432
10.4269,432
10.4269,391
10.4269,330
10.4269,280
10.4269,270
10.4269,303
10.4394,362
10.4414,414
10.4434,429
10.4434,400
10.4434,341
10.4434,284
10.4434,259
10.4434,278
10.4563,333
10.4574,393
10.4574,423
10.4574,409
10.4574,359
10.4574,298
10.4574,261
10.4574,267
10.4731,314
10.4742,377
10.4742,421
10.4742,421
10.4742,381
10.4742,321
10.4742,272
10.4742,263
10.4889,298
10.4909,359
10.4929,411
10.4949,428
10.4969,400
10.4989,342
10.5009,286
10.503,263
10.5048,283
10.5048,339
10.5048,398
10.5048,428
10.5122,412
10.5122,359
10.5165,296
10.5185,256
10.5205,260
10.5205,306
10.5205,367
10.5205,409
10.5205,409
10.5205,367
10.5318,304
10.5339,256
10.5359,245
10.5359,280
10.5359,342
10.5359,396
10.5359,413
10.5453,386
10.5473,330
10.5494,274
10.5514,250
10.5542,271
10.5562,326
10.5582,386
10.5602,418
10.5622,405
10.5652,355
10.5659,295
10.5675,259
10.5697,264
10.5718,310
10.5738,371
10.5758,413
10.5778,413
10.5799,371
10.5819,310
10.5834,261
10.5834,251
10.5884,286
10.5905,347
10.5925,401
10.5945,416
10.5965,386
10.5985,328
10.5995,271
10.6018,246
10.6038,267
10.6038,321
10.6038,381
10.6105,411
10.6125,396
10.6125,346
10.6155,286
10.6155,251
10.6155,258
10.622,306
10.624,369
10.626,409
10.626,406
10.6305,357
10.6335,284
10.6347,218
10.638,183
10.6414,190
10.6414,222
10.6414,251
10.6414,252
10.6414,215
10.6484,157
10.6484,105
10.6484,91
10.6548,129
10.6556,209
10.6576,306
10.6596,378
10.6617,397
10.6634,366
10.6654,315
10.6675,279
10.6695,282
10.6715,323
10.6748,379
10.6769,419
10.6789,418
10.6809,377
10.6818,317
10.6838,270
10.6864,261
10.6884,296
10.6908,358
10.6908,411
10.6948,427
10.6948,399
10.6989,342
10.7009,286
10.703,263
10.705,284
10.7071,340
10.7091,398
10.7109,428
10.7127,413
10.7149,361
10.7156,300
10.7176,263
10.7202,269
10.7221,316
10.7221,380
10.7221,424
10.7221,425
10.7295,384
10.7315,324
10.7337,274
10.7365,264
10.7381,297
10.741,357
10.7424,408
10.7451,423
10.7461,392
10.7489,335
10.7503,279
10.7517,255
10.7535,276
10.7567,331
10.7588,389
10.761,418
10.7626,401
10.7646,349
10.7664,287
10.7687,250
10.7697,255
10.7718,302
10.7743,363
10.7771,406
10.7788,405
10.7804,363
10.7823,301
10.7847,253
10.7868,243
10.7877,278
10.7905,339
10.7918,392
10.7938,407
10.7958,378
10.7979,320
10.7999,264
10.7999,240
10.7999,260
10.7999,314
10.8087,374
10.8087,403
10.8127,388
10.8127,336
10.8157,275
10.8178,236
10.8198,242
10.8218,287
10.8218,348
10.8218,388
10.8218,387
10.8218,343
10.8319,280
10.8342,231
10.8362,220
10.8382,254
10.8402,315
10.8422,368
10.8422,383
10.8422,354
10.8479,295
10.8479,239
10.8479,213
10.8479,234
10.8479,291
10.8479,351
10.8479,381
10.8479,367
10.8648,315
10.8668,256
10.8687,220
10.871,227
10.873,274
10.8748,338
10.877,382
10.8776,384
10.8799,343
10.8799,283
10.8799,237
10.8799,230
10.8799,267
10.8799,331
10.8799,388
10.8799,406
10.896,378
10.896,323
10.896,269
10.896,247
10.896,269
10.896,326
10.9077,386
10.9097,415
10.9128,399
10.9148,348
10.9168,287
10.9188,250
10.9208,258
10.9229,306
10.9229,369
10.9263,412
10.9291,413
10.9291,372
10.9291,311
10.9352,263
10.9357,253
10.9395,288
10.9412,349
10.9412,402
10.9452,418
10.9469,388
10.949,331
10.949,274
10.949,249
10.9549,270
10.9549,323
10.9549,382
10.9595,411
10.9595,395
10.9595,344
10.9595,284
10.9595,247
10.9699,254
10.972,301
10.972,364
10.9757,406
10.9757,406
10.9757,366
10.9832,304
10.9852,256
10.9873,247
10.9893,282
10.9893,343
10.9915,396
10.9935,411
10.9972,382
10.9972,325
10.9972,268
11.0024,245
11.0048,268
11.0058,325
11.009,385
11.0105,415
11.0131,401
11.0137,350
11.0153,290
11.0153,254
11.0153,260
11.0153,307
11.0232,369
11.0232,411
11.0232,411
11.0232,370
11.0232,310
11.0232,263
11.0232,254
11.0389,289
11.0404,350
11.0404,402
11.0404,418
11.047,388
11.0477,329
11.0477,272
11.0518,248
11.0548,269
11.0568,325
11.0589,386
11.0609,416
11.0609,402
11.0609,351
11.0609,291
11.0609,254
11.0709,260
11.0729,306
11.0729,369
11.0754,412
11.0774,413
11.0794,372
11.0818,312
11.0838,263
11.0868,255
11.0888,290
11.0909,350
11.0909,402
11.0909,417
11.0909,388
11.0909,330
11.0909,274
11.1025,250
11.1045,273
11.1066,328
11.1066,387
11.1066,417
11.1066,400
11.1132,348
11.1132,288
11.1185,251
11.1185,257
11.1224,305
11.1224,368
11.1224,410
11.1282,409
11.1302,366
11.1323,304
11.1343,255
11.1355,246
11.1375,281
11.1403,342
11.1414,395
11.1445,410
11.1461,380
11.1477,322
11.1509,266
11.1525,243
11.1525,266
11.1525,322
11.1525,382
11.1525,413
11.1525,398
11.1646,347
11.1667,287
11.1667,252
11.1703,258
11.1727,305
11.1747,366
11.1767,406
11.1787,402
11.1787,357
11.1826,292
11.1826,243
11.1826,233
11.1895,269
11.1895,330
11.1915,384
11.1936,399
11.1936,370
11.1984,311
11.1984,256
11.1984,233
11.2043,254
11.2063,311
11.2063,372
11.2063,403
11.2063,390
11.215,339
11.2171,279
11.2171,243
11.2171,250
11.2229,299
11.2229,363
11.2229,409
11.2229,412
11.2304,372
11.2325,314
11.2345,268
11.2365,261
11.2387,297
11.2387,360
11.2387,413
11.2387,429
11.2469,400
11.2469,342
11.2469,285
11.2519,262
11.255,284
11.257,340
11.257,399
11.257,429
11.2629,413
11.2629,361
11.2629,300
11.2629,264
11.2629,270
11.2729,317
11.2729,379
11.2729,423
11.2789,424
11.2789,383
11.2789,324
11.2789,277
11.2789,269
11.2789,301
11.2898,358
11.2918,402
11.2948,406
11.2948,358
11.2948,275
11.2948,189
11.2948,133
11.304,127
11.306,165
11.306,214
11.3106,244
11.3106,235
11.3134,193
11.3154,145
11.3181,130
11.3181,171
11.3227,258
11.3227,355
11.3263,422
11.3283,435
11.3303,397
11.3323,334
11.3344,281
11.3364,267
11.3364,298
11.3364,357
11.342,410
11.342,426
11.342,398
11.342,341
11.342,286
11.342,264
11.342,286
11.342,343
11.358,403
11.358,433
11.358,418
11.358,367
11.3667,307
11.3667,270
11.3667,275
11.3667,321
11.3737,383
11.3737,425
11.3737,424
11.3737,381
11.3737,320
11.3836,271
11.3856,262
11.3876,298
11.3894,359
11.3914,412
11.3914,428
11.3914,399
11.3914,341
11.3914,285
11.3914,263
11.3914,285
11.4067,341
11.4067,399
11.4067,429
11.4067,413
11.4135,361
11.4156,301
11.4176,264
11.4214,270
11.4214,318
11.4252,380
11.4258,423
11.4258,421
11.4258,380
11.4258,319
11.4258,270
11.4372,261
11.4372,295
11.4372,355
11.4424,406
11.4444,420
11.4464,390
11.4484,332
11.4505,276
11.4525,253
11.4545,274
11.4566,328
11.4566,386
11.4566,415
11.462,398
11.462,347
11.4665,287
11.4682,251
11.4702,258
11.4723,306
11.4723,368
11.4723,410
11.4723,408
11.4723,365
11.4723,303
11.4839,255
11.4839,246
11.4887,281
11.4887,341
11.4887,392
11.4887,405
11.4887,373
11.4887,314
11.5,257
11.5024,232
11.5041,252
11.5057,307
11.509,366
11.5106,394
11.5122,379
11.5137,328
11.5158,268
11.5178,230
11.5198,237
11.522,284
11.522,346
11.522,387
11.522,387
11.522,345
11.5314,284
11.5314,238
11.5355,230
11.5375,267
11.5395,331
11.5415,386
11.5435,404
11.5456,376
11.5473,321
11.5493,266
11.5513,244
11.5534,268
11.5554,325
11.5554,385
11.5554,417
11.5634,402
11.5654,352
11.5654,292
11.5654,256
11.5711,263
11.5731,311
11.5751,374
11.5751,416
11.5795,416
11.581,376
11.581,316
11.5837,269
11.5863,261
11.5877,297
11.5877,359
11.5916,413
11.5954,429
11.5968,399
11.5968,341
11.5968,285
11.5968,262
11.6044,283
11.6044,340
11.6044,400
11.611,430
11.613,417
11.6141,367
11.6141,308
11.6179,273
11.6199,281
11.6227,329
11.6227,390
11.6269,433
11.6269,432
11.6269,389
11.6269,328
11.6269,280
11.6363,271
11.6363,305
11.6363,364
11.6421,415
11.6442,429
11.6442,399
11.6485,341
11.6485,285
11.6485,263
11.6485,285
11.6554,341
11.6581,399
11.6581,429
11.6581,413
11.6581,360
11.6581,299
11.6581,261
11.6581,267
11.6581,313
11.6741,375
11.6741,417
11.6741,417
11.6741,376
11.6741,317
11.6741,271
11.6741,263
11.6894,300
11.6894,361
11.6914,413
11.6934,426
11.6954,397
11.6984,338
11.6984,281
11.6984,257
11.6984,279
11.7054,335
11.7054,393
11.7054,422
11.7054,406
11.714,353
11.714,293
11.714,257
11.714,264
11.7211,311
11.7243,373
11.7243,415
11.7243,413
11.7243,371
11.7243,310
11.7243,263
11.737,254
11.737,290
11.7397,351
11.7417,403
11.7438,418
11.7458,388
11.7478,330
11.7498,274
11.7528,251
11.7549,274
11.7559,330
11.7559,390
11.7559,419
11.7624,403
11.7644,351
11.7664,289
11.7692,252
11.7712,257
11.7712,303
11.7712,365
11.7712,406
11.7792,405
11.7792,362
11.7833,301
11.7843,253
11.7843,244
11.7891,280
11.7891,341
11.7924,392
11.7924,406
11.796,376
11.798,317
11.8005,261
11.8005,238
11.8051,261
11.8051,318
11.8051,378
11.8051,407
11.8051,389
11.8143,336
11.8164,273
11.8164,234
11.8164,240
11.8164,288
11.8164,350
11.8164,392
11.8164,390
11.8164,347
11.8325,284
11.8325,237
11.8356,229
11.838,266
11.8405,329
11.8425,383
11.8445,399
11.8465,369
11.8483,311
11.8483,256
11.8483,234
11.8483,258
11.8483,315
11.8483,378
11.8483,410
11.8483,397
11.8641,348
11.8641,290
11.8675,255
11.8675,262
11.8675,310
11.8741,373
11.8741,416
11.8792,417
11.8792,376
11.8792,317
11.8792,270
11.8792,263
11.8792,299
11.8792,359
11.8792,411
11.8949,424
11.8949,393
11.8985,334
11.8985,278
11.8985,255
11.8985,278
11.8985,335
11.8985,395
11.911,425
11.9115,410
11.9144,359
11.9144,299
11.9144,265
11.9197,275
11.9197,324
11.9251,387
11.9264,428
11.9264,422
11.9264,371
11.9264,296
11.9264,230
11.9356,195
11.9376,201
11.9396,230
11.9417,254
11.9449,248
11.9465,206
11.9482,143
11.9498,89
11.9514,74
11.9514,112
11.9566,195
11.9576,294
11.9596,369
11.9596,388
11.9596,359
11.9655,309
11.9675,274
11.9675,277
11.9733,319
11.9746,375
11.9746,412
11.9746,410
11.9746,367
11.9746,307
11.9845,262
11.9865,256
11.9885,295
11.9885,359
11.9885,415
11.9885,432
11.9885,405
11.9979,348
11.9979,294
11.9979,271
12.0065,294
12.0065,351
12.0065,411
12.0065,440
12.0065,424
12.0147,371
12.0147,309
12.0189,273
12.0205,280
12.0205,327
12.0205,388
12.0205,430
12.0205,427
12.0205,383
12.0205,321
12.0205,271
12.0363,262
12.0393,298
12.0393,359
12.0414,411
12.0434,425
12.0454,395
12.0474,337
12.0494,282
12.0524,259
12.0524,281
12.0524,336
12.0524,395
12.061,423
12.063,406
12.065,354
12.067,294
12.0685,258
12.0685,265
12.0685,312
12.0685,375
12.0685,418
12.0685,417
12.0802,375
12.0802,314
12.0844,267
12.0844,258
12.0844,293
12.0844,354
12.0844,405
12.0844,420
12.0844,389
12.0844,331
12.1005,275
12.1005,252
12.1005,275
12.1061,330
12.1061,389
12.1097,416
12.1117,398
12.115,345
12.1165,285
12.1165,249
12.1165,256
12.1165,303
12.1165,364
12.1165,404
12.1165,401
12.1165,356
12.1326,294
12.1346,245
12.1366,235
12.1387,270
12.1387,329
12.1414,381
12.1435,394
12.1455,362
12.1485,302
12.1505,246
12.1525,222
12.1525,244
12.1569,301
12.1569,361
12.1569,390
12.1569,373
12.1644,320
12.1644,260
12.1678,225
12.1678,234
12.1678,284
12.1678,349
12.1678,394
12.1678,394
12.1809,353
12.1809,292
12.1809,245
12.1809,238
12.1809,275
12.1809,336
12.1809,389
12.1809,405
12.196,377
12.196,321
12.196,268
12.196,247
12.196,272
12.196,330
12.196,391
12.196,420
12.2121,404
12.2152,353
12.2152,293
12.2152,258
12.2152,267
12.2152,317
12.2152,380
12.2152,423
12.2278,421
12.2278,378
12.2278,318
12.2278,272
12.2278,265
12.2278,302
12.2405,363
12.2405,415
12.2436,428
12.2456,396
12.2476,336
12.2496,279
12.2496,257
12.2496,280
12.2556,339
12.2556,398
12.2593,427
12.2593,411
12.2643,358
12.2656,297
12.2672,260
12.2672,266
12.2672,313
12.2751,374
12.2771,414
12.2771,412
12.2795,370
12.2817,309
12.2817,262
12.2817,255
12.2882,292
12.2882,353
12.2925,405
12.2925,420
12.2925,388
12.2925,329
12.2925,272
12.3016,248
12.3049,271
12.3049,327
12.3049,386
12.3049,415
12.3049,397
12.3131,344
12.3152,282
12.3152,245
12.3152,252
12.3215,300
12.3215,363
12.3215,404
12.3288,402
12.3288,360
12.3314,298
12.3314,250
12.3314,243
12.3314,280
12.3398,341
12.3398,392
12.3446,406
12.3446,375
12.3487,317
12.3511,262
12.3528,239
12.3547,262
12.3572,317
12.3589,377
12.3605,406
12.3605,390
12.3636,339
12.3669,279
12.3688,245
12.3706,253
12.373,301
12.3747,362
12.377,404
12.379,404
12.379,362
12.379,302
12.3836,255
12.3836,248
12.3884,284
12.3884,344
12.3919,396
12.3919,409
12.3919,378
12.3919,321
12.3919,266
12.3919,244
12.3919,268
12.4056,324
12.4076,382
12.4097,410
12.4097,392
12.4097,340
12.4153,279
12.4191,243
12.4211,251
12.4211,299
12.4237,362
12.4269,403
12.4269,402
12.4269,359
12.4269,297
12.4269,250
12.4269,241
12.4385,275
12.4404,332
12.4404,383
12.4404,395
12.4404,363
12.4404,304
12.4404,249
12.4404,228
12.4404,252
12.4555,310
12.4555,369
12.4555,396
12.4555,380
12.4555,327
12.4555,265
12.4555,228
12.4695,236
12.4713,285
12.4733,350
12.4733,393
12.4733,393
12.4733,351
12.4733,290
12.4733,243
12.4869,235
12.489,274
12.489,337
12.489,392
12.489,408
12.489,379
12.489,322
12.4997,266
12.5028,245
12.5049,269
12.5049,325
12.5091,385
12.5091,414
12.5091,398
12.5091,347
12.5154,287
12.5189,252
12.5189,259
12.5189,307
12.5189,369
12.5189,411
12.5285,410
12.5285,367
12.5285,304
12.5347,257
12.5347,249
12.5347,286
12.5347,349
12.542,402
12.5443,417
12.5443,388
12.5489,331
12.5504,275
12.5521,250
12.5536,270
12.5568,319
12.5584,366
12.5584,375
12.5584,332
12.5584,251
12.5662,162
12.5662,102
12.57,96
12.5712,139
12.5745,205
12.5745,258
12.5745,270
12.5745,246
12.5829,211
12.5829,198
12.5861,225
12.5861,288
12.5893,366
12.5924,426
12.5924,442
12.5924,407
12.5976,344
12.5976,285
12.5976,260
12.5976,282
12.6069,339
12.6074,398
12.6094,427
12.6094,411
12.6137,360
12.6158,301
12.6158,268
12.6158,277
12.6225,327
12.6245,389
12.6245,431
12.6245,428
12.6294,383
12.633,321
12.633,272
12.633,264
12.633,301
12.6399,362
12.6399,413
12.6399,427
12.6452,396
12.6488,338
12.6488,281
12.6488,260
12.6488,283
12.6554,340
12.6574,398
12.6574,426
12.6612,408
12.6612,355
12.6612,294
12.6612,259
12.6612,266
12.6612,315
12.6612,378
12.6771,419
12.6789,416
12.681,372
12.681,310
12.681,262
12.681,254
12.681,290
12.681,351
12.693,402
12.693,414
12.693,382
12.693,323
12.7005,266
12.7025,243
12.7025,267
12.7025,323
12.7081,383
12.7107,413
12.7125,397
12.7141,346
12.7157,286
12.7188,251
12.7188,259
12.7188,307
12.7248,369
12.7248,408
12.7278,404
12.7278,359
12.7278,296
12.7278,248
12.7278,241
12.7383,277
12.7411,339
12.7411,390
12.7411,402
12.7411,369
12.7482,308
12.7482,250
12.7516,227
12.7539,249
12.7559,306
12.7583,365
12.7605,392
12.7627,376
12.7647,324
12.7647,262
12.7682,225
12.7702,233
12.772,282
12.772,344
12.772,384
12.772,381
12.772,337
12.772,274
12.772,226
12.772,219
12.7885,258
12.7885,320
12.7921,373
12.7941,387
12.7941,357
12.7941,299
12.7941,244
12.7941,221
12.805,245
12.805,302
12.805,362
12.805,391
12.805,375
12.805,324
12.8151,265
12.8151,231
12.8197,241
12.8225,293
12.8225,357
12.8225,400
12.8274,399
12.8274,355
12.8274,292
12.8274,245
12.8366,238
12.8373,275
12.8373,338
12.8373,391
12.8449,406
12.8459,374
12.8474,317
12.8506,261
12.8521,238
12.8549,262
12.8549,318
12.8575,378
12.8604,407
12.8604,390
12.8604,340
12.8604,280
12.8688,246
12.8708,255
12.8726,304
12.8751,367
12.8767,407
12.8787,405
12.881,362
12.8828,300
12.8846,254
12.8858,248
12.8858,288
12.8903,351
12.8903,405
12.8941,419
12.8941,387
12.8941,329
12.8997,274
12.8997,251
12.8997,274
12.8997,331
12.8997,390
12.8997,418
12.8997,400
12.8997,347
12.9153,286
12.9153,251
12.9153,259
12.9153,308
12.9153,371
12.9263,413
12.9284,411
12.9305,367
12.933,306
12.935,259
12.935,252
12.9393,290
12.9393,352
12.9393,403
12.9393,415
12.9464,383
12.9464,325
12.9464,269
12.9464,248
12.9464,274
12.9556,331
12.9576,392
12.9576,421
12.9621,403
12.9633,351
12.9633,291
12.9684,257
12.9684,265
12.9684,314
12.9684,377
12.9684,418
12.9793,415
12.9803,371
12.9819,308
12.9851,261
12.9868,254
12.9888,291
12.9908,353
12.9928,404
12.9939,417
12.9965,385
12.9985,328
13.0006,272
13.0027,249
13.0047,273
13.0072,329
13.0087,387
13.01,414
13.0131,396
13.0131,342
13.0156,280
13.0176,244
13.0196,251
13.0196,299
13.025,361
13.026,402
13.028,399
13.03,355
13.03,294
13.03,247
13.03,240
13.03,277
13.03,339
13.0417,390
13.0437,402
13.0458,369
13.0458,309
13.0458,253
13.0458,231
13.0458,254
13.0458,311
13.0575,370
13.0575,397
13.0575,380
13.0575,328
13.0575,267
13.0575,232
13.0575,242
13.0575,291
13.0733,354
13.0733,395
13.0733,392
13.0733,347
13.0733,284
13.0733,237
13.0733,229
13.089,266
13.089,328
13.089,382
13.0933,397
13.0953,367
13.0953,309
13.0953,254
13.0953,233
13.105,257
13.107,314
13.107,373
13.107,402
13.107,384
13.107,332
13.1157,271
13.1157,235
13.1213,245
13.1225,295
13.1225,359
13.1225,401
13.1225,401
13.1225,358
13.1225,297
13.1225,251
13.1369,246
13.1369,285
13.1394,348
13.1394,402
13.1394,417
13.1394,388
13.1394,331
13.1394,274
13.1527,250
13.1527,269
13.156,317
13.156,364
13.156,372
13.156,331
13.156,250
13.156,162
13.1686,105
13.1712,103
13.1723,150
13.1739,217
13.1772,270
13.1788,281
13.1805,257
13.1805,221
13.1846,207
13.1846,232
13.1846,294
13.1846,371
13.1846,429
13.1846,445
13.1846,411
13.1846,348
13.2007,289
13.2027,265
13.2027,287
13.2027,344
13.2027,404
13.2027,433
13.2027,418
13.2027,368
13.2159,310
13.2159,276
13.2159,287
13.2159,336
13.2159,398
13.2159,440
13.2159,437
13.2159,393
13.2316,331
13.2316,283
13.2316,276
13.2316,313
13.2393,373
13.2393,424
13.2393,439
13.2393,408
13.2476,350
13.2476,293
13.2476,271
13.2476,294
13.2476,350
13.2476,408
13.2476,437
13.2476,420
13.2635,368
13.2635,308
13.2635,272
13.2635,280
13.2717,328
13.2737,389
13.2737,430
13.2737,427
13.2793,383
13.2793,320
13.2793,273
13.2793,266
13.2793,303
13.2793,365
13.2793,416
13.2951,429
13.2951,397
13.2951,337
13.2951,281
13.2951,259
13.2951,282
13.3058,341
13.3078,400
13.3112,429
13.3117,414
13.3117,361
13.3161,302
13.3161,268
13.3161,277
13.3161,326
13.3161,387
13.3265,428
13.3265,425
13.3265,381
13.3265,319
13.3265,271
13.3265,263
13.3265,299
13.3394,359
13.343,409
13.343,421
13.343,388
13.343,329
13.3499,273
13.3499,251
13.3534,275
13.3534,331
13.3593,391
13.3608,419
13.3626,401
13.3644,347
13.3668,285
13.3687,248
13.3704,257
13.3719,305
13.3747,368
13.3767,409
13.3787,407
13.3803,363
13.3803,301
13.3803,255
13.3803,249
13.3887,287
13.3896,350
13.3896,402
13.3896,416
13.3956,385
13.3956,328
13.3956,273
13.3956,252
13.4047,278
13.4047,336
13.4047,395
13.4047,425
13.4116,408
13.4116,356
13.4166,297
13.4166,264
13.4209,274
13.423,324
13.423,387
13.423,429
13.423,428
13.423,385
13.423,325
13.423,278
13.4366,271
13.4366,307
13.4366,369
13.4366,420
13.4366,433
13.4366,401
13.4366,342
13.4366,287
13.4524,266
13.4524,290
13.4524,347
13.4524,406
13.4524,433
13.4612,417
13.4612,365
13.4612,305
13.4686,271
13.4686,280
13.4686,329
13.4686,391
13.4686,431
13.4686,428
13.4686,384
13.4811,322
13.4842,275
13.4842,269
13.4842,307
13.4897,369
13.4917,419
13.4937,432
13.4937,400
13.4937,341
13.5,284
13.5013,263
13.5013,287
13.5013,345
13.5085,404
13.5085,432
13.5085,414
13.5143,361
13.5172,300
13.5172,264
13.5172,272
13.5172,320
13.5172,381
13.5172,422
13.5172,419
13.5172,375
13.5319,313
13.5319,267
13.5319,260
13.5319,297
13.5319,359
13.5319,410
13.5319,423
13.5319,392
13.5478,334
13.5478,279
13.5478,258
13.5478,282
13.5478,339
13.5478,397
13.5478,424
13.5478,406
13.5635,351
13.5635,290
13.5635,255
13.5635,263
13.5635,312
13.5635,375
13.5635,416
13.5635,414
13.5793,373
13.5793,312
13.5793,265
13.5859,258
13.5859,294
13.5859,353
13.5859,403
13.5949,416
13.5949,383
13.5949,324
13.5949,269
13.5949,249
13.5949,273
13.5949,330
13.5949,389
13.6106,416
13.6106,397
13.6106,343
13.6165,281
13.6165,245
13.6165,253
13.6165,302
13.6165,363
13.6266,403
13.6266,399
13.6266,353
13.6266,290
13.6342,242
13.6363,235
13.6388,274
13.6405,336
13.6421,389
13.6437,402
13.6468,369
13.6468,309
13.6468,252
13.6468,228
13.6468,250
13.6468,306
13.658,365
13.658,393
13.658,376
13.658,323
13.658,262
13.658,226
13.658,235
13.658,285
13.674,348
13.6769,391
13.6789,391
13.6789,349
13.6789,288
13.6789,243
13.6789,237
13.6789,275
13.6902,337
13.6902,391
13.6902,405
13.6902,375
13.6902,318
13.6902,263
13.6902,243
13.6902,269
13.7062,327
13.7062,386
13.7062,415
13.7062,398
13.7062,346
13.7165,287
13.7165,252
13.7165,260
13.7219,308
13.7219,369
13.7219,408
13.7219,404
13.7219,359
13.7219,297
13.7219,250
13.7219,243
13.7376,281
13.7376,343
13.7376,395
13.7376,407
13.7376,375
13.7376,316
13.7376,261
13.7517,240
13.7543,265
13.7566,325
13.7575,386
13.7575,415
13.7575,396
13.7575,340
13.7575,273
13.7575,226
13.7705,218
13.7722,244
13.7722,279
13.7722,291
13.7722,261
13.7722,197
13.7722,125
13.785,73
13.786,67
13.786,115
13.7902,194
13.7902,270
13.7902,317
13.7902,324
13.7902,296
13.8008,261
13.8008,250
13.8008,277
13.8008,332
13.8008,387
13.8008,410
13.8008,389
13.8008,333
13.8164,273
13.8164,239
13.8164,250
13.8164,301
13.8164,367
13.8164,409
13.8164,408
13.8164,365
13.8321,303
13.8321,256
13.8321,250
13.8321,287
13.8321,349
13.8321,401
13.8321,414
13.8321,382
13.8479,324
13.8479,268
13.8479,246
13.8479,271
13.8479,328
13.8479,386
13.8595,414
13.8595,396
13.8636,343
13.8636,283
13.8636,249
13.8636,258
13.8636,306
13.8636,368
13.8636,408
13.8636,406
13.8807,363
13.8807,301
13.8807,255
13.8807,249
13.8807,288
13.8807,350
13.8807,402
13.8807,416
13.8964,384
13.8964,326
13.8964,271
13.8964,249
13.9052,273
13.9052,329
13.9052,388
13.9092,415
13.9092,397
13.9135,345
13.9163,285
13.9184,252
13.9184,262
13.9214,311
13.9214,374
13.9257,413
13.9257,410
13.9293,365
13.9321,303
13.9321,256
13.9321,249
13.939,286
13.939,347
13.939,397
13.944,409
13.9466,376
13.9483,316
13.9499,259
13.9514,237
13.9545,261
13.9545,317
13.9545,375
13.9608,402
13.9608,382
13.9608,327
13.9608,264
13.9683,227
13.9683,234
13.9683,283
13.9683,346
13.9759,387
13.979,385
13.979,340
13.979,278
13.979,231
13.979,225
13.979,263
13.979,325
13.9917,377
13.9937,389
13.9967,356
13.9984,296
13.9984,241
13.9984,220
13.9984,246
13.9984,305
14.0074,365
14.0074,394
14.0074,378
14.0074,325
14.0165,265
14.0165,231
14.0165,241
14.0165,293
14.0231,357
14.0231,399
14.0231,398
14.0231,355
14.0231,295
14.0231,249
14.0231,244
14.0388,283
14.0388,345
14.0388,397
14.0388,410
14.0388,379
14.0388,321
14.0388,266
14.0388,246
14.0546,270
14.0546,327
14.0546,387
14.0546,415
14.0546,397
14.0546,345
14.0546,286
14.0546,253
14.0707,263
14.0707,312
14.0707,375
14.0707,417
14.0707,414
14.0797,370
14.0797,308
14.0797,262
14.0866,255
14.0866,294
14.0866,357
14.0866,410
14.0866,425
14.0866,397
14.0866,340
14.0866,286
14.1024,265
14.1037,290
14.1037,347
14.1037,406
14.1037,434
14.1037,417
14.1037,365
14.1166,306
14.1183,272
14.1183,281
14.122,331
14.122,393
14.122,433
14.122,430
14.122,387
14.122,325
14.1351,278
14.1365,272
14.1392,308
14.1408,369
14.1428,420
14.1448,433
14.1468,402
14.1488,344
14.1498,289
14.1518,269
14.1539,293
14.1559,351
14.1579,410
14.1599,438
14.1619,420
14.1619,366
14.1656,306
14.1656,271
14.1656,280
14.1656,328
14.1656,389
14.1656,430
14.1656,428
14.1656,384
14.1814,324
14.1814,277
14.1814,272
14.1814,311
14.1814,373
14.1814,425
14.1814,439
14.1814,407
14.1975,347
14.1975,293
14.1975,272
14.1975,294
14.1975,351
14.1975,407
14.1975,433
14.1975,414
14.2135,359
14.2169,297
14.2169,261
14.2169,269
14.2169,317
14.2169,379
14.2169,419
14.2169,415
14.2296,370
14.2317,307
14.2345,260
14.2366,253
14.2366,292
14.2394,355
14.2394,407
14.2394,421
14.2455,390
14.2455,331
14.2455,276
14.2455,254
14.2455,279
14.2455,337
14.2455,395
14.2602,422
14.2612,404
14.2645,351
14.2671,291
14.2692,256
14.2692,265
14.2692,314
14.2692,377
14.2692,419
14.2773,415
14.2773,372
14.2773,309
14.2839,261
14.2839,255
14.2839,292
14.2904,354
14.2904,405
14.2934,418
14.2956,385
14.2956,325
14.2956,268
14.3025,246
14.3025,270
14.3025,327
14.3025,385
14.3093,412
14.3115,393
14.3115,338
14.317,275
14.317,237
14.317,245
14.317,291
14.325,351
14.325,391
14.325,387
14.325,343
14.325,281
14.3345,233
14.3345,226
14.3345,262
14.3408,324
14.3408,376
14.3408,389
14.3457,356
14.3457,296
14.35,242
14.35,221
14.35,246
14.3569,304
14.3575,364
14.3609,393
14.3609,376
14.3609,325
14.3609,266
14.3687,233
14.3709,244
14.373,296
14.3746,360
14.3768,402
14.3786,401
14.3792,358
14.3792,297
14.3792,252
14.3853,246
14.3883,284
14.391,346
14.391,397
14.391,410
14.391,377
14.3976,319
14.3976,263
14.3976,242
14.4042,266
14.4042,323
14.4042,381
14.4099,409
14.4099,390
14.4099,338
14.4099,278
14.4172,245
14.4211,254
14.4211,306
14.4211,371
14.4256,413
14.4283,410
14.4307,362
14.4307,294
14.4307,237
14.4364,215
14.4384,230
14.4403,263
14.4423,283
14.4443,267
14.4462,212
14.4478,140
14.4509,77
14.4526,57
14.4542,90
14.4558,164
14.4558,245
14.4558,307
14.4558,330
14.4633,311
14.4633,274
14.4633,252
14.4702,266
14.4715,314
14.4735,372
14.4755,408
14.4776,400
14.4793,353
14.4814,290
14.4852,245
14.4852,240
14.4893,281
14.4893,345
14.4913,398
14.4952,413
14.4952,382
14.4991,324
14.4991,268
14.5012,246
14.5037,269
14.5057,325
14.5077,383
14.511,410
14.511,392
14.511,339
14.5153,278
14.5173,244
14.5193,253
14.5213,303
14.5213,365
14.5271,405
14.5271,403
14.5311,359
14.5311,297
14.5311,252
14.5311,245
14.5371,283
14.5401,345
14.543,396
14.543,408
14.543,376
14.5485,318
14.5485,263
14.5485,243
14.5485,268
14.5558,325
14.559,384
14.559,412
14.559,394
14.559,341
14.559,281
14.5688,246
14.5708,255
14.5728,304
14.5748,366
14.5769,407
14.5789,405
14.5809,361
14.5829,299
14.5849,253
14.587,248
14.587,286
14.5909,348
14.5909,399
14.5909,411
14.5963,378
14.5963,319
14.5963,264
14.5963,242
14.5963,266
14.6066,322
14.6066,381
14.6106,408
14.6126,388
14.6126,334
14.6126,272
14.6174,236
14.62,245
14.6223,293
14.6223,354
14.6259,392
14.6259,388
14.6303,342
14.6323,279
14.6343,231
14.6363,224
14.6381,262
14.6381,324
14.6381,375
14.6381,386
14.6381,354
14.6474,295
14.6474,241
14.6511,220
14.6542,245
14.6542,303
14.6542,362
14.6542,388
14.6627,369
14.6627,314
14.6627,254
14.6627,219
14.6699,228
14.6726,277
14.6726,340
14.6726,382
14.6726,381
14.6794,339
14.6794,279
14.6794,235
14.6858,230
14.6858,269
14.6858,333
14.6918,387
14.6938,401
14.6959,371
14.6989,313
14.6989,260
14.7026,240
14.7026,266
14.7026,325
14.7026,385
14.7026,414
14.7026,396
14.7026,343
14.7026,283
14.7188,249
14.7198,258
14.7229,307
14.7246,370
14.7261,410
14.7277,407
14.7293,363
14.732,301
14.7336,256
14.7336,252
14.7336,291
14.7336,355
14.7422,408
14.7422,422
14.7462,391
14.7462,333
14.7494,278
14.7494,258
14.7494,282
14.7494,340
14.7494,398
14.7494,426
14.7494,408
14.7494,355
14.7655,295
14.7655,261
14.7655,271
14.7655,320
14.7655,381
14.7655,421
14.7655,417
14.7655,372
14.7827,312
14.7847,266
14.7867,261
14.7875,300
14.7907,362
14.792,412
14.792,424
14.792,392
14.7976,333
14.7976,276
14.7976,255
14.7976,279
14.7976,337
14.7976,395
14.7976,422
14.7976,403
14.8148,350
14.8148,289
14.8179,254
14.8179,263
14.8179,312
14.8179,374
14.8179,414
14.8291,411
14.8291,367
14.8291,305
14.8291,259
14.8291,252
14.8291,289
14.8291,350
14.8291,400
14.8449,411
14.8469,378
14.8469,320
14.8469,265
14.8469,245
14.8469,272
14.8562,330
14.8562,388
14.8622,416
14.8629,397
14.8629,344
14.8629,283
14.8629,248
14.8629,257
14.8629,306
14.8629,368
14.8771,409
14.8794,406
14.8816,362
14.8829,301
14.8849,254
14.8871,249
14.889,287
14.8909,349
14.8932,401
14.8932,413
14.8932,380
14.8932,322
14.8932,268
14.8932,247
14.8932,272
14.8932,329
14.9085,388
14.911,415
14.911,396
14.911,343
14.911,283
14.9182,250
14.9182,260
14.9182,310
14.9245,373
14.9268,414
14.9268,410
14.9268,366
14.9268,305
14.9268,260
14.9268,255
14.9268,294
14.9408,356
14.9431,406
14.9431,416
14.9454,379
14.9474,316
14.9495,257
14.9495,234
14.955,257
14.9556,314
14.9556,373
14.9556,401
14.963,381
14.963,328
14.963,267
14.963,234
14.9715,246
14.9715,297
14.9715,362
14.9715,404
14.9715,403
14.9715,360
14.9715,300
14.9715,255
14.9874,251
14.9892,290
14.9914,354
14.9914,408
14.9914,423
14.9914,393
14.9914,337
14.9914,284
15.0033,265
15.0033,291
15.0033,349
15.0033,407
15.0033,434
15.0033,415
15.0033,361
15.0158,301
15.0184,268
15.0194,276
15.0194,326
15.0238,388
15.0258,429
15.0278,427
15.0298,384
15.0325,325
15.0325,279
15.0352,275
15.0352,313
15.0411,375
15.0411,425
15.0411,438
15.0458,405
15.0458,345
15.0512,291
15.0512,271
15.0538,297
15.0538,356
15.0579,412
15.0599,436
15.0623,411
15.0643,348
15.0674,272
15.0694,215
15.0694,197
15.0725,214
15.0725,246
15.0725,262
15.0725,242
15.0814,189
15.0832,127
15.0852,86
15.0852,90
15.0885,150
15.0885,245
15.0885,340
15.0948,392
15.0968,388
15.0988,344
15.1011,294
15.1031,271
15.1051,290
15.1072,341
15.1092,394
15.1112,417
15.1133,396
15.1148,342
15.1165,284
15.1193,252
15.1209,264
15.1227,315
15.1244,379
15.126,420
15.1293,417
15.1308,372
15.1328,309
15.1348,263
15.1369,256
15.1389,294
15.1409,356
15.1429,407
15.1449,419
15.1467,386
15.1467,328
15.1499,274
15.1519,253
15.1519,279
15.1519,337
15.1519,395
15.1519,422
15.1627,403
15.1627,349
15.1627,289
15.1688,256
15.1709,266
15.1709,316
15.1739,378
15.1759,419
15.1779,414
15.1779,370
15.1779,308
15.1848,261
15.1848,253
15.1848,291
15.1848,351
15.1848,401
15.1938,413
15.1938,379
15.1938,320
15.2007,265
15.2019,244
15.204,269
15.204,326
15.2083,386
15.2098,414
15.2119,396
15.2119,344
15.2156,285
15.2188,251
15.2188,262
15.2215,311
15.2215,374
15.226,415
15.228,410
15.2302,365
15.2326,303
15.2326,256
15.2326,249
15.2326,286
15.2326,347
15.2416,396
15.2416,406
15.2416,371
15.2416,310
15.2416,254
15.2416,232
15.2538,255
15.2558,311
15.2585,368
15.2585,393
15.2626,374
15.2626,319
15.2626,257
15.2687,220
15.2707,228
15.2733,276
15.2733,338
15.2733,376
15.2733,372
15.2733,327
15.2733,264
15.2733,216
15.2858,211
15.2858,249
15.2891,311
15.2912,362
15.2947,375
15.2947,343
15.2947,284
15.2947,230
15.3026,210
15.3048,236
15.3069,295
15.3069,354
15.3069,382
15.3069,365
15.3131,312
15.3131,254
15.3189,222
15.3207,234
15.3207,286
15.3235,351
15.3255,392
15.3255,390
15.3255,347
15.332,286
15.332,240
15.3366,234
15.3366,272
15.3396,334
15.3396,386
15.3396,400
15.3396,368
15.3396,308
15.3499,254
15.3526,234
15.3526,260
15.3526,317
15.3575,377
15.3595,403
15.3615,383
15.3635,329
15.3656,268
15.3688,232
15.3695,243
15.3695,293
15.3738,356
15.3738,396
15.3738,394
15.3738,350
15.3814,287
15.384,242
15.384,238
15.384,277
15.384,341
15.384,394
15.384,406
15.384,374
15.384,316
15.3996,261
15.3996,241
15.4045,267
15.4045,324
15.4085,383
15.4105,411
15.4125,391
15.4145,338
15.4167,277
15.4167,243
15.4193,252
15.4193,302
15.4247,365
15.4247,406
15.4247,404
15.4247,360
15.4315,298
15.4342,252
15.4342,246
15.4342,284
15.4342,345
15.4342,396
15.4342,408
15.4342,375
15.4474,317
15.4505,263
15.452,243
15.4536,269
15.4567,325
15.4584,384
15.4599,411
15.4619,393
15.4634,340
15.4655,279
15.4675,246
15.4695,256
15.4695,306
15.4742,369
15.4742,410
15.4742,407
15.481,364
15.481,303
15.481,258
15.4861,253
15.4884,292
15.4884,354
15.4884,405
15.4884,417
15.4966,385
15.4972,326
15.5003,271
15.5023,250
15.5052,274
15.5052,329
15.5072,387
15.5072,412
15.5072,392
15.5072,339
15.5072,278
15.5072,244
15.5208,254
15.523,304
15.523,366
15.525,406
15.525,403
15.525,359
15.5328,298
15.5348,253
15.5366,248
15.5386,288
15.5406,351
15.5426,404
15.5446,416
15.5446,384
15.549,326
15.549,270
15.5522,250
15.5542,276
15.5567,335
15.5587,393
15.5607,421
15.5627,403
15.5627,350
15.5627,290
15.5682,255
15.5682,264
15.5682,313
15.5734,376
15.5754,416
15.5774,412
15.5794,367
15.5815,305
15.5844,260
15.5855,255
15.5877,294
15.5897,356
15.5897,407
15.5897,419
15.5897,387
15.5897,328
15.6003,273
15.6003,252
15.6003,277
15.6003,334
15.6003,391
15.6003,417
15.6003,398
15.6003,345
15.6164,284
15.6164,248
15.6195,257
15.6195,305
15.6195,366
15.6195,406
15.6195,402
15.6195,357
15.6325,296
15.6325,250
15.6325,243
15.6325,280
15.6325,339
15.6325,387
15.6325,398
15.6325,364
15.6483,303
15.6483,249
15.6483,228
15.6483,253
15.6483,310
15.6483,369
15.6483,395
15.6483,377
15.6645,324
15.6667,264
15.6687,231
15.6687,242
15.6687,293
15.6687,357
15.6687,398
15.6687,396
15.6803,351
15.6803,289
15.6803,245
15.6868,241
15.6877,281
15.6877,346
15.6877,398
15.6877,411
15.6966,379
15.6966,321
15.6966,266
15.6966,246
15.6966,271
15.6966,329
15.6966,387
15.6966,413
15.7123,392
15.7123,337
15.7123,277
15.7123,243
15.72,254
15.72,304
15.72,369
15.72,410
15.7282,408
15.7282,365
15.7282,304
15.7282,260
15.7282,255
15.7282,294
15.7282,357
15.7282,410
15.745,423
15.7474,391
15.7474,332
15.7474,275
15.7474,250
15.7474,267
15.7571,312
15.7571,350
15.7608,350
15.7608,301
15.7608,218
15.7608,133
15.7608,81
15.7608,83
15.7608,134
15.7758,208
15.7758,263
15.7778,279
15.7778,262
15.7778,237
15.7778,228
15.7778,251
15.7778,308
15.7915,378
15.7915,430
15.7915,439
15.7915,401
15.7915,336
15.7915,276
15.7915,254
15.7915,279
15.8075,337
15.8094,397
15.8114,426
15.8114,408
15.8114,356
15.8114,297
15.8114,264
15.8202,274
15.8202,323
15.8254,385
15.8264,426
15.8297,423
15.8314,378
15.8333,318
15.8352,273
15.8374,269
15.8392,309
15.8392,373
15.8392,424
15.8392,437
15.8392,405
15.8392,347
15.8392,292
15.8392,272
15.8549,297
15.8549,353
15.8589,410
15.8609,437
15.8629,418
15.8629,364
15.8629,304
15.8629,270
15.871,279
15.873,328
15.8743,389
15.8763,428
15.8763,423
15.8763,377
15.8763,316
15.8763,270
15.8869,264
15.8869,303
15.8869,365
15.8869,415
15.8869,428
15.8869,395
15.8869,335
15.8869,282
15.9029,263
15.9029,289
15.9061,347
15.9061,404
15.9061,430
15.9061,410
15.9061,355
15.9061,294
15.919,260
15.9216,270
15.9216,320
15.9252,382
15.9274,423
15.9294,418
15.9314,373
15.9314,310
15.9353,261
15.9367,254
15.9378,292
15.9396,353
15.9428,403
15.9435,414
15.9454,380
15.9475,320
15.9495,263
15.9512,241
15.9533,265
15.9533,319
15.9533,376
15.9533,401
15.9533,380
15.9533,326
15.9672,264
15.9672,228
15.9672,237
15.9672,286
15.9672,346
15.9672,385
15.9672,381
15.9672,337
15.983,274
15.983,227
15.983,220
15.983,257
15.983,317
15.983,368
15.983,378
15.983,346
15.9989,287
16.0011,234
16.0018,215
16.0018,244
16.006,304
16.008,365
16.01,393
16.0121,375
16.0152,321
16.0158,261
16.0178,228
16.0214,239
16.0227,291
16.0227,356
16.0227,399
16.0227,397
16.0309,356
16.0309,296
16.0309,253
16.0309,249
16.0383,289
16.0383,352
16.0383,402
16.0383,414
16.0468,380
16.0488,320
16.0508,265
16.0508,245
16.0508,271
16.0508,329
16.0508,388
16.0508,417
16.0632,399
16.0648,346
16.0668,286
16.0668,252
16.0668,262
16.0668,313
16.0668,376
16.0668,418
16.0786,415
16.081,371
16.0828,309
16.0854,262
16.0873,256
16.0894,294
16.0906,356
16.0906,407
16.0944,419
16.0944,388
16.0944,330
16.0944,277
16.0944,259
16.0944,284
16.0944,343
16.0944,402
16.1104,429
16.1124,408
16.1124,354
16.1124,293
16.1124,259
16.1216,267
16.1216,316
16.1216,377
16.1265,417
16.1289,412
16.1289,368
16.1289,306
16.1289,261
16.1289,257
16.1289,296
16.1289,359
16.1428,410
16.1428,422
16.1428,389
16.1428,331
16.1428,276
16.1428,256
16.1428,281
16.1428,339
16.1587,397
16.1587,424
16.1587,406
16.1587,351
16.1587,291
16.1587,257
16.1587,267
16.1587,318
16.1748,381
16.1769,422
16.1789,417
16.1809,372
16.1829,308
16.1849,261
16.1849,254
16.1894,291
16.1909,352
16.1929,402
16.1929,413
16.1929,380
16.1929,322
16.1929,270
16.1929,251
16.1929,278
16.2071,338
16.2089,397
16.2114,424
16.2114,406
16.2114,352
16.2114,291
16.2114,258
16.2114,267
16.2223,316
16.2223,378
16.2223,419
16.2223,415
16.2223,372
16.2223,312
16.2223,267
16.2223,261
16.2382,301
16.2416,363
16.2436,415
16.2456,427
16.2476,395
16.2476,335
16.2476,280
16.2538,259
16.2538,284
16.2538,342
16.2538,399
16.2538,425
16.2538,405
16.2538,349
16.2538,287
16.2538,249
16.2698,255
16.2698,302
16.2698,362
16.2698,400
16.2698,396
16.2698,352
16.2698,290
16.2859,244
16.2859,238
16.2859,277
16.2859,339
16.2859,390
16.2859,403
16.2859,372
16.2859,315
16.3019,262
16.3019,243
16.3019,269
16.3019,327
16.3019,385
16.3019,412
16.3019,393
16.3019,341
16.3019,282
16.3178,250
16.3211,263
16.3227,314
16.3254,379
16.3254,420
16.3254,416
16.3254,372
16.3336,312
16.3354,266
16.3374,261
16.3374,300
16.3374,362
16.3374,413
16.3374,426
16.3374,393
16.3495,334
16.3503,280
16.3503,260
16.3503,285
16.3503,343
16.3503,402
16.3503,428
16.3503,409
16.3655,356
16.3655,297
16.3692,265
16.3702,277
16.3702,330
16.3702,393
16.3702,435
16.3702,431
16.3813,384
16.3833,319
16.3833,265
16.3833,249
16.3833,271
16.3833,310
16.3833,335
16.3833,318
16.3972,259
16.3972,180
16.3972,112
16.3972,86
16.3972,115
16.3972,182
16.3972,254
16.3972,302
16.4132,312
16.4152,294
16.4175,266
16.4194,253
16.4206,275
16.4227,328
16.4244,389
16.4262,424
16.4291,414
16.4314,365
16.4333,300
16.4349,253
16.4367,247
16.4367,287
16.4409,351
16.4429,404
16.4449,418
16.4449,386
16.4449,327
16.4449,272
16.4449,252
16.4449,278
16.4449,337
16.4449,396
16.4608,422
16.4608,403
16.4644,348
16.4669,288
16.4689,254
16.4709,265
16.4709,315
16.4749,377
16.4769,417
16.4769,412
16.4769,366
16.4769,303
16.4769,256
16.4769,250
16.4769,288
16.4769,349
16.4927,400
16.4949,412
16.4969,380
16.4989,320
16.5009,263
16.5029,241
16.5029,264
16.5029,320
16.5088,378
16.5088,405
16.5088,385
16.5088,332
16.5088,272
16.5088,237
16.5088,248
16.5233,297
16.5249,359
16.5249,399
16.5249,396
16.5249,351
16.5249,289
16.5249,242
16.5249,235
16.5386,273
16.5412,334
16.5425,386
16.5435,396
16.5435,363
16.5435,302
16.5435,248
16.5435,227
16.5435,252
16.5569,310
16.5594,369
16.5614,395
16.5634,376
16.5654,322
16.5669,262
16.5694,227
16.5717,237
16.5717,287
16.5756,349
16.5774,388
16.5796,383
16.5796,338
16.5796,275
16.5796,229
16.5876,224
16.5876,264
16.5876,326
16.5876,378
16.5876,390
16.5876,358
16.5876,298
16.5876,244
16.6037,224
16.6037,249
16.6058,307
16.6078,366
16.6078,391
16.6078,371
16.6078,316
16.6078,255
16.62,221
16.6209,231
16.6209,282
16.626,346
16.626,386
16.626,383
16.626,339
16.626,278
16.6359,234
16.6359,231
16.6359,272
16.6414,336
16.6414,390
16.6414,405
16.6414,374
16.6414,318
16.6518,265
16.6518,247
16.6518,275
16.6518,334
16.6518,396
16.6518,424
16.6518,406
16.6518,354
16.6518,294
16.6677,261
16.6677,272
16.6677,322
16.6677,385
16.6677,426
16.6677,423
16.6677,379
16.6838,319
16.6854,274
16.6874,269
16.6874,309
16.6914,371
16.6934,422
16.6954,434
16.6974,402
16.6994,344
16.7014,290
16.7014,271
16.7014,295
16.7014,351
16.7014,408
16.7014,434
16.7014,414
16.7153,360
16.7174,299
16.7194,266
16.7211,275
16.7211,324
16.7254,386
16.7274,425
16.7274,420
16.7312,375
16.7312,312
16.7312,265
16.7312,259
16.7312,297
16.7312,360
16.7312,410
16.7312,423
16.7472,391
16.7472,332
16.7514,277
16.7534,257
16.7543,282
16.7574,341
16.7594,399
16.7614,426
16.7634,408
16.7654,354
16.7654,293
16.7654,259
16.7654,268
16.7654,316
16.7654,377
16.7654,417
16.7792,411
16.7792,366
16.7792,304
16.7792,259
16.7792,254
16.7792,294
16.7792,356
16.7792,406
16.7953,417
16.7953,384
16.7953,324
16.7953,268
16.7953,246
16.7953,270
16.7953,327
16.7953,385
16.8113,412
16.8113,393
16.8113,340
16.8113,280
16.8113,247
16.8113,257
16.8113,307
16.8113,368
16.8274,408
16.8288,405
16.8314,360
16.8333,298
16.8354,253
16.8374,248
16.8374,287
16.8409,350
16.8434,402
16.8434,414
16.8434,381
16.8434,323
16.8434,268
16.8434,248
16.8434,274
16.8434,333
16.8593,392
16.8593,419
16.8593,400
16.8593,347
16.8593,287
16.8593,255
16.8593,266
16.8593,316
16.8752,378
16.8774,418
16.8794,414
16.8814,371
16.8814,309
16.8814,264
16.8814,259
16.8814,298
16.8914,359
16.8926,409
16.8948,420
16.897,387
16.8989,327
16.9013,272
16.9033,252
16.9052,277
16.9065,334
16.9075,389
16.9075,412
16.9075,390
16.9075,333
16.9075,270
16.9075,234
16.9075,244
16.9226,293
16.9249,355
16.9265,394
16.9281,389
16.9298,344
16.933,281
16.933,235
16.933,230
16.933,270
16.9411,333
16.9411,384
16.9435,397
16.9455,363
16.9476,303
16.9496,249
16.9516,229
16.9536,256
16.9556,315
16.9576,375
16.9596,404
16.9628,386
16.9646,334
16.9651,274
16.9651,240
16.9713,252
16.9713,303
16.9713,366
16.9713,407
16.9713,405
16.9713,362
16.9713,301
16.9713,256
16.9869,252
16.989,291
16.991,354
16.993,405
16.993,418
16.997,385
16.997,326
16.999,270
17.0028,249
17.0048,275
17.0068,331
17.0088,389
17.0108,415
17.0128,396
17.0148,344
17.0168,285
17.0186,253
17.0186,264
17.0186,313
17.0186,373
17.0186,408
17.0279,394
17.0279,335
17.0279,251
17.0344,178
17.0344,142
17.0344,153
17.0344,194
17.0344,235
17.0344,242
17.0344,211
17.0344,158
17.0504,114
17.0504,113
17.0504,169
17.0504,266
17.0504,362
17.0504,413
17.0504,408
17.0504,358
17.0663,296
17.0675,257
17.0695,261
17.0712,306
17.0744,366
17.0744,406
17.0744,403
17.0744,359
17.083,298
17.0836,253
17.0836,248
17.089,287
17.091,350
17.0931,402
17.0951,414
17.0971,382
17.0986,323
17.0986,268
17.1026,248
17.1038,274
17.1072,331
17.1089,390
17.1107,417
17.1123,397
17.1144,344
17.1165,284
17.1165,250
17.1165,259
17.1165,308
17.1165,368
17.1165,406
17.1281,401
17.1303,355
17.1323,291
17.1323,245
17.1323,240
17.1323,280
17.1323,342
17.1323,393
17.1323,405
17.1465,372
17.1488,312
17.1488,257
17.1488,237
17.1488,262
17.1488,319
17.1488,378
17.1488,406
17.1626,387
17.1626,334
17.1626,274
17.1626,239
17.1626,249
17.1626,299
17.1626,362
17.1626,402
17.1784,398
17.1784,353
17.1784,291
17.1784,245
17.1784,240
17.1784,278
17.1784,340
17.1784,390
17.1945,401
17.1945,367
17.1945,306
17.1945,250
17.1945,228
17.1945,253
17.1945,310
17.1945,368
17.2106,393
17.2106,374
17.2106,319
17.2106,256
17.2106,221
17.2106,230
17.2106,279
17.2106,341
17.2266,381
17.2294,377
17.2294,331
17.2294,268
17.2294,222
17.2294,217
17.2294,256
17.2294,319
17.2433,370
17.2438,381
17.2438,347
17.2438,285
17.2438,229
17.2438,207
17.2438,232
17.2438,290
17.2589,350
17.2614,377
17.2634,358
17.2654,304
17.2669,245
17.2669,211
17.2669,223
17.2669,275
17.275,340
17.2774,383
17.2774,382
17.2774,338
17.2774,277
17.2774,233
17.2774,229
17.2774,270
17.2908,334
17.2908,388
17.2908,402
17.2908,370
17.2908,312
17.2908,258
17.2908,238
17.3039,264
17.3072,322
17.3072,381
17.3072,408
17.3072,388
17.3072,334
17.3072,274
17.3072,240
17.3072,251
17.3223,302
17.3248,366
17.3268,407
17.3288,404
17.3308,360
17.3308,298
17.3308,252
17.3308,247
17.3382,286
17.3402,349
17.3422,400
17.3443,413
17.3443,381
17.3493,323
17.3507,268
17.3539,248
17.3539,274
17.3539,331
17.3539,389
17.3539,417
17.3539,397
17.3539,344
17.3539,283
17.3696,250
17.3713,260
17.3713,310
17.3713,372
17.3713,411
17.3713,407
17.3713,362
17.3713,300
17.3856,255
17.3856,251
17.3856,291
17.3856,353
17.3856,404
17.3856,415
17.3856,383
17.3856,324
17.4015,268
17.4029,247
17.4047,273
17.4047,329
17.4047,388
17.4047,414
17.4047,395
17.4047,341
17.4174,282
17.4174,249
17.4174,259
17.4174,309
17.4174,372
17.4174,411
17.4294,407
17.4294,361
17.4336,299
17.4336,254
17.4336,250
17.4336,290
17.4336,352
17.4336,404
17.4336,415
17.4336,382
17.4498,323
17.451,268
17.4539,247
17.4539,274
17.4573,331
17.4591,389
17.4608,415
17.4608,397
17.4657,344
17.4657,285
17.4657,251
17.4709,262
17.4726,311
17.4726,374
17.4726,414
17.4772,410
17.4772,365
17.4817,302
17.4817,256
17.4817,250
17.4817,289
17.4817,350
17.4817,400
17.4817,412
17.4817,379
17.4979,320
17.4979,265
17.4979,245
17.4979,271
17.4979,328
17.4979,387
17.4979,414
17.4979,395
17.5148,342
17.5169,281
17.5189,246
17.5209,256
17.5209,305
17.5209,367
17.5209,407
17.5209,404
17.5297,361
17.5297,300
17.5297,255
17.5297,250
17.5297,289
17.5297,352
17.5297,402
17.5297,413
17.5459,381
17.5459,322
17.5459,266
17.5459,246
17.5459,272
17.5459,330
17.5459,389
17.5459,417
17.5632,398
17.5632,345
17.5632,285
17.5632,252
17.5632,262
17.5632,312
17.5632,374
17.5632,413
17.579,409
17.5809,364
17.5809,302
17.5809,256
17.5809,251
17.5809,291
17.5809,353
17.5936,403
17.5949,413
17.597,378
17.5994,315
17.5994,258
17.5994,235
17.5994,260
17.6074,317
17.6094,375
17.6107,401
17.6134,381
17.6154,327
17.617,267
17.6194,233
17.6216,245
17.6228,296
17.6249,360
17.6249,401
17.6249,397
17.6302,352
17.6302,291
17.6302,245
17.6377,241
17.6377,282
17.6414,347
17.6434,401
17.6454,416
17.6474,388
17.6494,331
17.6514,279
17.6534,261
17.6543,287
17.6574,346
17.6594,404
17.6614,431
17.6614,412
17.6614,359
17.6614,298
17.6694,264
17.6694,275
17.6694,324
17.6694,385
17.6694,424
17.6694,419
17.6694,372
17.6694,311
17.6855,264
17.6855,259
17.6855,298
17.6855,361
17.6855,413
17.6855,424
17.6855,393
17.6855,334
17.7015,281
17.7034,264
17.7043,290
17.7074,346
17.7094,400
17.7114,421
17.7114,391
17.7114,320
17.7114,236
17.7194,173
17.7209,151
17.7209,171
17.7209,212
17.7209,239
17.7209,229
17.7306,185
17.7333,129
17.7333,91
17.7333,105
17.7333,176
17.7333,279
17.7333,371
17.7333,409
17.7333,392
17.7495,339
17.7495,283
17.7495,258
17.7495,278
17.7579,332
17.7579,388
17.7579,413
17.7579,393
17.7655,340
17.7669,281
17.7694,248
17.771,259
17.7728,310
17.7754,373
17.7774,413
17.7774,410
17.7815,366
17.7833,305
17.7833,259
17.7833,254
17.7833,293
17.7833,354
17.7833,403
17.7833,414
17.7975,380
17.7975,321
17.7975,265
17.7975,245
17.7975,270
17.7975,327
17.7975,386
17.7975,412
17.8133,393
17.8133,339
17.8133,278
17.8133,244
17.8133,254
17.8133,304
17.8133,367
17.8133,406
17.8293,401
17.8319,356
17.8333,293
17.8354,248
17.8374,243
17.8374,282
17.8374,345
17.8374,395
17.8452,407
17.8452,374
17.8452,314
17.8452,259
17.8452,239
17.8452,265
17.8452,322
17.8452,380
17.8614,407
17.8614,386
17.8614,332
17.8614,272
17.8614,238
17.8614,249
17.8614,298
17.8614,360
17.8775,398
17.8789,393
17.8789,348
17.8789,285
17.8789,239
17.8789,233
17.8789,272
17.8789,333
17.8935,383
17.8948,394
17.8948,359
17.8948,298
17.8948,244
17.8948,223
17.8948,249
17.8948,308
17.9092,367
17.9092,393
17.9092,374
17.9092,319
17.9092,259
17.9092,225
17.9092,236
17.9092,288
17.9252,351
17.9252,391
17.9252,385
17.9315,338
17.9315,274
17.9315,227
17.9315,221
17.9315,260
17.9414,322
17.9414,373
17.9414,385
17.9414,351
17.9414,291
17.9414,236
17.9414,216
17.9414,241
17.9574,300
17.9589,360
17.9614,388
17.9629,371
17.965,319
17.9674,261
17.9689,229
17.9689,242
17.9728,294
17.9748,358
17.9767,399
17.9767,397
17.9767,352
17.9767,291
17.9767,247
17.9767,243
17.9888,284
17.9888,348
17.9888,401
17.9888,413
17.9888,381
17.9888,324
17.9888,270
17.9888,250
18.0047,276
18.0047,335
18.0047,393
18.0047,420
18.0047,401
18.0047,348
18.0047,289
18.0047,256
18.0209,266
18.0228,316
18.0254,379
18.0274,419
18.0294,414
18.0319,369
18.0333,307
18.0354,262
18.0374,258
18.0374,297
18.0414,359
18.0414,410
18.0414,422
18.0414,389
18.0414,330
18.0414,275
18.0533,254
18.0533,280
18.0533,338
18.0533,397
18.0533,423
18.0533,403
18.0533,349
18.0533,289
18.0693,256
18.0704,267
18.0704,317
18.0704,380
18.0704,420
18.0704,415
18.0704,370
18.0704,309
18.0853,264
18.0853,259
18.0853,299
18.0853,362
18.0853,412
18.0853,423
18.0853,389
18.0853,330
18.1013,276
18.1027,257
18.1044,282
18.1074,339
18.1094,397
18.1114,423
18.1114,403
18.1114,350
18.1171,290
18.1171,257
18.1171,268
18.1171,319
18.1171,381
18.1171,422
18.1171,419
18.1316,375
18.1333,316
18.1347,271
18.1353,266
18.139,304
18.1414,364
18.1434,411
18.1456,420
18.1476,385
18.1496,327
18.1496,274
18.1496,255
18.1496,283
18.1553,342
18.1553,401
18.1553,427
18.1553,407
18.1654,353
18.1664,293
18.1664,260
18.1664,271
18.1664,321
18.1664,382
18.1664,421
18.1664,415
18.1814,370
18.1814,308
18.1814,262
18.1814,257
18.1814,295
18.1814,356
18.1814,406
18.1814,417
18.1973,383
18.1994,324
18.2014,269
18.2034,249
18.2043,275
18.2074,333
18.2094,392
18.2114,419
18.2133,400
18.2154,348
18.2169,288
18.2194,255
18.2211,266
18.2228,315
18.2254,377
18.2274,416
18.2293,411
18.2318,366
18.2326,305
18.2326,259
18.2326,254
18.2326,294
18.2326,355
18.2326,405
18.2453,415
18.2453,381
18.2453,321
18.2453,266
18.2453,247
18.2453,273
18.2453,330
18.2453,388
18.2613,414
18.2613,393
18.2654,338
18.2674,275
18.2674,239
18.2674,247
18.2674,295
18.2674,357
18.2774,395
18.2795,391
18.2815,345
18.2835,282
18.2853,236
18.2873,231
18.2888,270
18.2888,333
18.2934,384
18.2934,396
18.2934,363
18.2934,303
18.2934,250
18.2934,230
18.2934,256
18.2934,315
18.3095,376
18.3095,404
18.3095,387
18.3095,336
18.3095,279
18.3095,248
18.3095,260
18.3095,310
18.3254,373
18.3254,413
18.3293,408
18.3313,362
18.3333,300
18.3353,254
18.3373,251
18.3373,291
18.3412,354
18.3412,405
18.3412,417
18.3412,384
18.3412,326
18.3412,272
18.3412,253
18.3412,279
18.3571,338
18.3593,398
18.3613,425
18.3633,407
18.3653,354
18.3669,295
18.3669,262
18.3711,274
18.373,325
18.3754,387
18.3769,426
18.3793,418
18.3813,368
18.3822,299
18.3822,243
18.3822,221
18.3884,237
18.3914,270
18.3934,290
18.3954,273
18.3974,218
18.3994,146
18.4014,85
18.4034,70
18.4044,106
18.4074,182
18.4094,266
18.4114,328
18.4114,349
18.4114,329
18.4114,291
18.4114,268
18.4208,281
18.4229,329
18.4229,386
18.4229,421
18.4229,413
18.4229,366
18.432,304
18.432,260
18.436,257
18.436,298
18.436,362
18.436,414
18.436,426
18.436,393
18.436,333
18.4517,277
18.4534,257
18.4544,281
18.4574,339
18.4574,396
18.4574,422
18.4574,403
18.4574,350
18.4574,290
18.4676,257
18.4706,268
18.4706,318
18.4706,380
18.4706,419
18.4706,414
18.4706,369
18.4839,307
18.4839,263
18.4839,258
18.4839,298
18.4839,360
18.4839,411
18.4839,421
18.4839,387
18.4997,327
18.4997,272
18.5031,252
18.5048,279
18.5071,337
18.5086,394
18.5112,419
18.5112,398
18.5112,343
18.5168,282
18.5192,248
18.5209,258
18.523,309
18.523,372
18.5268,412
18.5268,407
18.5298,362
18.5324,300
18.5344,253
18.5364,248
18.5384,286
18.5405,348
18.5425,397
18.5445,407
18.5465,372
18.5482,311
18.5502,255
18.5523,235
18.5543,260
18.5563,316
18.5583,374
18.5603,400
18.5623,379
18.5641,324
18.5661,263
18.5681,228
18.5701,238
18.5721,287
18.5741,349
18.5761,387
18.5781,381
18.5799,334
18.5819,270
18.5839,222
18.5859,216
18.5879,255
18.5899,317
18.5919,369
18.594,380
18.5957,345
18.5977,284
18.5997,228
18.6017,206
18.6037,231
18.6058,288
18.6078,347
18.6098,373
18.6116,354
18.6136,299
18.6156,239
18.6176,205
18.6216,217
18.6216,268
18.6236,332
18.6236,373
18.6287,370
18.6307,325
18.6327,264
18.6347,220
18.6367,217
18.6388,259
18.6408,323
18.6428,376
18.6448,391
18.6468,360
18.6488,302
18.6508,250
18.6528,233
18.6548,261
18.6568,320
18.6586,380
18.6597,407
18.6597,388
18.6597,336
18.6597,278
18.6597,247
18.6597,260
18.672,313
18.672,376
18.672,416
18.672,412
18.6804,367
18.6804,306
18.6804,261
18.6804,257
18.6884,296
18.6904,357
18.6924,407
18.6944,417
18.6962,384
18.6982,324
18.7002,268
18.7022,247
18.7042,274
18.7062,331
18.7082,390
18.7102,417
18.712,397
18.714,343
18.716,283
18.718,250
18.72,261
18.722,311
18.724,373
18.7261,411
18.7278,407
18.7298,361
18.7329,299
18.7349,253
18.7369,247
18.7389,286
18.7409,348
18.7429,398
18.7439,408
18.7459,374
18.7479,313
18.7499,259
18.7499,239
18.7499,266
18.7499,325
18.7499,384
18.7608,410
18.7628,391
18.7648,336
18.7648,275
18.7648,241
18.7648,253
18.7648,303
18.7648,365
18.7754,404
18.7754,399
18.7754,354
18.7754,293
18.7754,248
18.7754,244
18.7754,285
18.7754,347
18.7929,397
18.7947,408
18.7947,373
18.7947,313
18.7947,258
18.7947,238
18.7947,264
18.7947,321
18.809,379
18.8101,405
18.8117,385
18.8148,332
18.8166,271
18.8183,237
18.82,250
18.8235,300
18.8248,362
18.8268,402
18.8288,399
18.8288,355
18.8332,294
18.8332,251
18.8332,247
18.8332,288
18.8408,351
18.8428,401
18.8448,412
18.8468,379
18.8488,320
18.8508,265
18.8528,246
18.8557,273
18.8557,331
18.8557,390
18.8557,417
18.8557,398
18.8557,345
18.8557,285
18.8557,252
18.8714,263
18.8714,313
18.8714,375
18.8714,414
18.8714,408
18.8714,362
18.8714,300
18.8714,254
18.8873,250
18.8893,290
18.8909,352
18.8929,402
18.8949,413
18.8949,379
18.8949,320
18.8949,266
18.9031,246
18.9053,272
18.9069,330
18.9088,389
18.9109,414
18.9131,395
18.9151,341
18.9172,281
18.9188,249
18.9196,260
18.9225,311
18.9225,374
18.9225,413
18.9225,409
18.9225,363
18.9332,302
18.9354,256
18.9361,252
18.9361,292
18.9361,355
18.9361,406
18.9361,418
18.9361,384
18.9361,325
18.9508,270
18.9534,250
18.9552,276
18.9574,333
18.9594,389
18.9614,413
18.9634,390
18.9654,333
18.9669,270
18.9669,234
18.9669,246
18.9669,296
18.9669,360
18.9669,399
18.9669,395
18.9669,349
18.9828,286
18.9828,241
18.9868,236
18.9886,275
18.9914,336
18.9934,387
18.9954,397
18.9954,363
18.9987,304
18.9987,251
18.9987,232
19.0051,261
19.0051,320
19.0051,380
19.0051,407
19.0051,390
19.0147,339
19.0147,281
19.0147,250
19.0147,262
19.0225,313
19.0246,376
19.0254,416
19.0274,410
19.0309,365
19.0338,303
19.0354,257
19.0374,253
19.0374,294
19.0414,358
19.0434,409
19.0434,422
19.0467,390
19.0494,332
19.0494,278
19.0494,260
19.0494,286
19.0494,344
19.0494,402
19.0494,426
19.0627,405
19.0627,349
19.0627,288
19.0627,256
19.0627,270
19.0627,321
19.0627,382
19.0627,418
19.0787,406
19.0787,350
19.0787,273
19.0787,206
19.0787,174
19.0787,182
19.0787,215
19.0787,241
19.0948,236
19.097,193
19.097,131
19.097,81
19.097,71
19.097,116
19.097,204
19.097,306
19.1107,375
19.1107,387
19.1144,351
19.1144,296
19.1144,261
19.1144,266
19.1144,310
19.1144,367
19.127,402
19.1291,395
19.1291,349
19.1334,288
19.1334,245
19.1334,241
19.1334,282
19.1334,346
19.1431,398
19.1454,411
19.1474,379
19.1494,321
19.1514,266
19.1534,247
19.1542,273
19.1574,330
19.1594,388
19.1614,413
19.1634,392
19.1654,338
19.1654,278
19.1654,246
19.1654,258
19.1654,309
19.1752,373
19.1762,413
19.1782,408
19.1782,363
19.1782,300
19.1782,254
19.1782,249
19.1782,290
19.1912,353
19.1923,404
19.1932,415
19.1932,380
19.1932,321
19.1932,266
19.1932,248
19.1932,274
19.207,332
19.2095,390
19.2116,415
19.2139,395
19.2139,341
19.2139,280
19.2139,247
19.2139,257
19.2221,307
19.2221,368
19.2221,407
19.2221,401
19.2221,356
19.2339,295
19.2339,251
19.2339,246
19.2381,285
19.2409,347
19.2434,396
19.2454,406
19.2474,370
19.2494,308
19.2494,252
19.2494,232
19.2542,258
19.2542,315
