timestamp,ecg_value
0.0,191
0.0,193
0.0,198
0.0,202
0.0,203
0.0,201
0.0,196
0.0,192
0.0,190
0.0,192
0.0,196
0.0,200
0.0,202
0.0,202
0.0,197
0.0,193
0.0,190
0.0,190
0.0,194
0.0,199
0.0,202
0.0,202
0.0,199
0.0,194
0.0,191
0.0,190
0.0054,192
0.0054,197
0.0054,201
0.0054,202
0.0054,200
0.0054,196
0.0054,191
0.0054,190
0.0054,191
0.0054,195
0.0054,200
0.0054,202
0.0054,201
0.0054,197
0.0054,193
0.0054,190
0.0054,190
0.0054,194
0.0054,198
0.0054,202
0.0054,202
0.0054,199
0.0054,194
0.0054,191
0.0054,190
0.0054,193
0.0054,197
0.0054,201
0.0054,202
0.0054,200
0.0054,196
0.0054,192
0.0054,190
0.0054,191
0.0054,196
0.0054,200
0.0054,202
0.0054,201
0.0054,198
0.0054,193
0.0054,190
0.0054,191
0.0054,194
0.0054,199
0.0054,202
0.0054,202
0.0054,199
0.0054,194
0.0054,191
0.0054,190
0.0054,193
0.0054,197
0.0054,201
0.0054,202
0.0126,200
0.0134,196
0.0134,192
0.0134,190
0.0134,191
0.0134,196
0.0142,200
0.0142,202
0.0142,202
0.0142,198
0.015,193
0.015,190
0.015,191
0.015,194
0.015,199
0.015,202
0.015,202
0.015,199
0.015,195
0.015,191
0.015,191
0.015,193
0.015,198
0.015,201
0.015,203
0.015,201
0.015,196
0.015,192
0.015,190
0.015,192
0.015,196
0.015,200
0.015,203
0.015,202
0.015,198
0.015,193
0.015,190
0.015,191
0.02,194
0.02,199
0.02,202
0.02,202
0.02,199
0.02,195
0.02,191
0.02,190
0.02,193
0.02,198
0.0221,201
0.0221,203
0.0221,201
0.0221,196
0.0221,192
0.0221,190
0.0221,192
0.0221,196
0.0221,200
0.0221,203
0.0241,202
0.0241,198
0.0241,194
0.0241,191
0.0241,191
0.0241,195
0.0241,199
0.0241,203
0.0241,203
0.0241,200
0.0241,195
0.0241,191
0.0241,191
0.0241,193
0.0241,198
0.0262,201
0.0262,203
0.0262,201
0.0262,197
0.0262,193
0.0262,191
0.0262,193
0.0262,197
0.0262,201
0.0262,204
0.0262,203
0.0262,199
0.0262,195
0.0262,192
0.0262,192
0.0282,195
0.0282,199
0.0282,202
0.0282,202
0.0282,199
0.0282,194
0.0282,191
0.0282,190
0.0296,192
0.0296,196
0.0296,200
0.0296,202
0.0314,201
0.0314,197
0.032,193
0.032,191
0.032,193
0.032,197
0.032,201
0.032,203
0.032,202
0.032,199
0.0343,194
0.0343,191
0.0343,191
0.0343,195
0.0343,199
0.0343,202
0.0343,203
0.0343,200
0.0343,195
0.0363,192
0.0363,191
0.0363,193
0.0363,198
0.0363,202
0.039,203
0.039,201
0.039,197
0.039,193
0.0415,191
0.0415,192
0.0415,196
0.0415,201
0.0415,203
0.0415,202
0.0415,199
0.0435,194
0.0435,191
0.0435,191
0.044,195
0.044,199
0.044,202
0.044,203
0.044,200
0.044,196
0.044,192
0.044,191
0.044,193
0.044,198
0.044,202
0.044,203
0.0457,201
0.0457,197
0.0457,193
0.0457,191
0.0457,192
0.0465,196
0.0465,201
0.0465,203
0.0465,203
0.0465,199
0.0465,194
0.0477,191
0.0477,191
0.0477,195
0.0477,199
0.0477,203
0.0477,203
0.0477,200
0.0477,196
0.0477,192
0.0477,191
0.0477,193
0.0477,198
0.0497,202
0.0497,203
0.0497,202
0.0497,197
0.0497,193
0.0497,191
0.0497,192
0.0497,196
0.0497,201
0.0497,203
0.0497,203
0.0497,199
0.0497,194
0.0497,191
0.0497,191
0.0517,195
0.0517,199
0.0517,203
0.0517,203
0.0517,200
0.0517,196
0.0517,192
0.0517,191
0.0517,193
0.0517,198
0.0517,202
0.0517,203
0.0517,201
0.0517,197
0.0517,193
0.0537,191
0.0537,192
0.0537,196
0.0537,201
0.0537,203
0.0537,203
0.0537,199
0.0537,195
0.0537,191
0.0537,191
0.0537,195
0.0537,199
0.0537,202
0.0537,203
0.0537,200
0.0537,195
0.0537,191
0.0557,191
0.0557,193
0.0557,198
0.0557,201
0.0557,203
0.0557,201
0.0557,197
0.0557,193
0.0557,190
0.0557,191
0.0557,196
0.0557,200
0.0557,203
0.0557,202
0.0557,198
0.0557,194
0.0557,191
0.0577,191
0.0577,194
0.0577,199
0.0577,202
0.0577,203
0.0577,200
0.0577,195
0.0577,192
0.0577,191
0.0577,193
0.0577,198
0.0577,202
0.0577,203
0.0577,202
0.0577,197
0.0577,193
0.0597,191
0.0597,192
0.0597,196
0.0597,201
0.0597,203
0.0597,202
0.0597,199
0.0597,194
0.0597,191
0.0597,191
0.0597,195
0.0597,199
0.0597,203
0.0597,203
0.0615,200
0.0615,196
0.0615,192
0.0615,191
0.0621,193
0.0621,198
0.0621,201
0.0621,203
0.0621,201
0.0621,197
0.0621,193
0.0621,191
0.0621,192
0.0621,196
0.0621,200
0.0621,203
0.0621,202
0.0641,199
0.0641,195
0.0641,191
0.0641,191
0.0641,195
0.0641,199
0.0641,203
0.0641,203
0.0641,200
0.0641,196
0.0641,192
0.0641,191
0.0641,193
0.0641,198
0.0641,202
0.0641,203
0.0661,202
0.0661,197
0.0661,193
0.0661,191
0.0661,192
0.0661,196
0.0661,200
0.0661,203
0.0661,203
0.0661,199
0.0661,194
0.0661,191
0.0661,191
0.0661,195
0.0661,199
0.0661,203
0.0681,203
0.0681,200
0.0681,196
0.0681,192
0.0681,191
0.0681,193
0.0681,198
0.0681,202
0.0681,203
0.0681,201
0.0681,197
0.0681,193
0.0681,191
0.0681,192
0.0681,196
0.0699,200
0.0699,203
0.0699,203
0.0699,199
0.0699,195
0.0699,191
0.0699,191
0.0699,195
0.0709,199
0.0709,203
0.0709,203
0.0709,200
0.0709,196
0.0709,192
0.0709,191
0.0709,193
0.0709,197
0.0709,202
0.0709,203
0.0709,202
0.0709,197
0.0709,193
0.0709,191
0.0709,192
0.0729,196
0.0729,200
0.0729,203
0.0729,203
0.0729,199
0.0729,194
0.0729,191
0.0729,191
0.0729,194
0.0729,199
0.0729,202
0.0729,203
0.0729,200
0.0729,196
0.0729,192
0.0729,191
0.0749,193
0.0749,198
0.0749,202
0.0749,203
0.0749,202
0.0749,198
0.0749,193
0.0749,191
0.0749,192
0.0749,196
0.0749,201
0.0749,203
0.0749,203
0.0749,199
0.0749,195
0.0749,191
0.0769,191
0.0769,195
0.0769,199
0.0769,203
0.0769,203
0.0769,201
0.0769,196
0.0769,192
0.0769,191
0.0779,193
0.0779,197
0.0779,201
0.0779,203
0.0779,202
0.0779,197
0.0779,193
0.0779,191
0.0791,192
0.0791,196
0.0791,200
0.0791,203
0.0791,203
0.0791,199
0.0791,194
0.0791,191
0.0791,191
0.0791,194
0.0791,199
0.0791,202
0.0791,203
0.0791,200
0.0791,196
0.0791,192
0.0791,191
0.0791,193
0.0791,198
0.0791,202
0.0791,203
0.0791,202
0.0791,197
0.0791,193
0.0791,191
0.0791,192
0.0791,196
0.0791,200
0.0791,203
0.0791,203
0.0791,199
0.0791,195
0.0791,191
0.0791,191
0.0791,195
0.0791,199
0.0791,203
0.0791,204
0.0791,201
0.0791,197
0.0791,193
0.0791,192
0.0791,194
0.0791,199
0.0791,202
0.0791,203
0.0791,201
0.0791,197
0.0791,192
0.0791,190
0.0791,191
0.0791,195
0.0791,199
0.0791,202
0.0791,201
0.0791,198
0.0791,193
0.0791,191
0.0865,191
0.0865,195
0.0865,199
0.0865,203
0.0865,204
0.0865,201
0.0865,197
0.0865,193
0.0865,191
0.0865,193
0.0865,198
0.0865,202
0.0865,203
0.0865,202
0.0865,198
0.0865,193
0.0865,191
0.0865,192
0.0865,196
0.0865,200
0.0865,203
0.0865,203
0.0865,199
0.0865,195
0.0865,191
0.0865,191
0.0865,194
0.0865,199
0.0865,203
0.0865,203
0.0865,201
0.0865,196
0.0865,192
0.0865,191
0.0865,193
0.0865,197
0.0865,201
0.0865,203
0.0865,202
0.0865,198
0.0865,193
0.0865,191
0.0865,192
0.0865,196
0.0865,200
0.0865,203
0.0865,203
0.0865,199
0.0865,195
0.0865,191
0.0865,191
0.0865,194
0.0865,199
0.0865,202
0.0865,203
0.0865,201
0.0865,196
0.0865,192
0.0865,191
0.0865,193
0.0946,197
0.0946,202
0.0946,203
0.0946,202
0.0946,198
0.0946,193
0.0946,191
0.0946,192
0.0946,196
0.0946,200
0.0946,203
0.0946,203
0.0946,199
0.0946,195
0.0946,191
0.0946,191
0.0946,194
0.0946,199
0.0946,203
0.0946,203
0.0946,201
0.0946,196
0.0946,192
0.0946,191
0.0946,193
0.0946,198
0.0946,202
0.0946,203
0.0946,202
0.0946,198
0.0946,194
0.0946,191
0.0946,192
0.0946,196
0.0946,200
0.0946,203
0.0946,203
0.0946,199
0.0946,195
0.0946,191
0.0946,191
0.0946,194
0.0946,199
0.0946,202
0.0946,203
0.0946,201
0.0946,196
0.0946,192
0.0946,191
0.0946,193
0.0946,197
0.0946,201
0.0946,203
0.0946,202
0.0946,198
0.0946,193
0.0946,191
0.0946,192
0.0946,195
0.0946,200
0.0946,203
0.0946,202
0.0946,199
0.0946,195
0.0946,191
0.0946,191
0.1028,194
0.1028,199
0.1028,202
0.1028,203
0.1028,200
0.1028,196
0.1028,192
0.1028,191
0.1028,193
0.1028,197
0.1028,201
0.1028,203
0.1028,202
0.1028,198
0.1028,193
0.1028,191
0.1028,192
0.1028,196
0.1028,200
0.1028,203
0.1028,203
0.1028,199
0.1028,195
0.1028,191
0.1028,191
0.1028,194
0.1028,199
0.1028,202
0.1028,203
0.1028,201
0.1028,196
0.1028,192
0.1028,191
0.1028,193
0.1028,197
0.1028,201
0.1028,203
0.1028,202
0.1028,198
0.1028,193
0.1028,191
0.1028,192
0.1028,196
0.1028,200
0.1028,203
0.1028,203
0.1028,199
0.1028,195
0.1028,191
0.1028,191
0.1028,194
0.1028,199
0.1028,202
0.1028,203
0.1028,201
0.1028,196
0.1028,192
0.1028,191
0.1028,193
0.1028,197
0.1028,202
0.1028,203
0.1028,202
0.1028,198
0.1028,193
0.1028,191
0.1028,192
0.1028,196
0.1028,200
0.1028,203
0.1028,203
0.1028,199
0.1028,195
0.1028,191
0.1028,191
0.1028,194
0.1028,199
0.1028,202
0.1028,203
0.1028,201
0.1028,197
0.1028,192
0.1028,191
0.1028,193
0.1028,197
0.1028,202
0.1028,204
0.1028,202
0.1028,198
0.1028,194
0.1028,191
0.1028,192
0.1028,196
0.1028,200
0.1028,203
0.1028,203
0.1028,200
0.1028,195
0.1028,191
0.1028,191
0.1028,194
0.1028,199
0.1028,202
0.1028,203
0.1028,201
0.1028,196
0.1028,192
0.1028,191
0.1028,193
0.1028,197
0.1028,201
0.1028,203
0.1028,202
0.1028,198
0.1028,194
0.1028,191
0.1028,192
0.1028,196
0.1028,200
0.1028,203
0.1028,203
0.1028,199
0.1028,195
0.1028,191
0.1028,191
0.1028,194
0.1028,199
0.1028,202
0.1028,203
0.1028,201
0.1028,196
0.1028,192
0.1028,191
0.1028,193
0.1028,197
0.1188,201
0.1188,203
0.1188,202
0.1188,198
0.1188,194
0.1188,191
0.1188,191
0.1188,195
0.1188,200
0.1188,203
0.1188,203
0.1188,199
0.1188,195
0.1188,192
0.1188,191
0.1188,194
0.1209,199
0.1209,202
0.1209,203
0.1209,201
0.1209,197
0.1209,193
0.1209,191
0.1209,193
0.1209,197
0.1209,201
0.1209,203
0.1209,202
0.1209,198
0.1209,193
0.1229,191
0.1229,192
0.1229,195
0.1229,200
0.1229,203
0.1229,203
0.1229,199
0.1229,195
0.1229,191
0.1229,191
0.1229,194
0.1229,199
0.1229,202
0.1229,203
0.1229,201
0.1229,196
0.1249,192
0.1249,191
0.1249,193
0.1249,197
0.1249,201
0.1249,203
0.1249,202
0.1249,198
0.1249,193
0.1249,191
0.1249,191
0.1249,196
0.1249,200
0.1249,203
0.1249,203
0.1249,200
0.1269,195
0.1269,191
0.1269,191
0.1269,194
0.1269,199
0.1269,202
0.1269,203
0.1269,201
0.1269,197
0.1269,193
0.1269,191
0.1269,193
0.1269,198
0.1269,202
0.1269,205
0.1269,203
0.1289,199
0.1289,194
0.1289,191
0.1289,191
0.1289,195
0.1289,199
0.1289,202
0.1289,202
0.1289,199
0.1289,195
0.1289,191
0.1289,190
0.1289,193
0.1289,198
0.1289,202
0.1289,203
0.1289,201
0.1309,197
0.1309,193
0.1309,191
0.1309,193
0.1309,198
0.1309,202
0.1309,204
0.1309,202
0.1309,198
0.1309,194
0.1309,191
0.1309,192
0.1309,195
0.1309,200
0.1309,203
0.1309,203
0.1309,200
0.1329,195
0.1329,192
0.1329,191
0.1329,194
0.1329,199
0.1329,202
0.1329,203
0.1329,201
0.1329,197
0.1329,193
0.1329,191
0.1329,193
0.1329,197
0.1347,201
0.1347,203
0.1347,202
0.1347,198
0.1347,194
0.1347,191
0.1347,191
0.1347,195
0.1347,200
0.1359,203
0.1359,203
0.1359,200
0.1359,195
0.1359,192
0.1359,191
0.1359,194
0.1359,198
0.1359,202
0.1359,203
0.1359,201
0.1359,197
0.1379,193
0.1379,191
0.1379,192
0.1379,197
0.1379,201
0.1379,203
0.1379,202
0.1379,198
0.1379,194
0.1379,191
0.1379,191
0.1399,195
0.1399,200
0.1399,203
0.1399,203
0.1399,200
0.1399,195
0.1399,192
0.1399,191
0.1399,194
0.1399,199
0.1419,202
0.1419,203
0.1419,201
0.1419,197
0.1419,193
0.1419,191
0.1419,193
0.1419,197
0.1419,201
0.1419,203
0.1419,202
0.1419,198
0.1419,194
0.1419,191
0.1419,191
0.1419,195
0.1419,200
0.1419,203
0.1419,203
0.1419,200
0.1419,195
0.1419,191
0.1419,191
0.1419,194
0.1419,198
0.1419,202
0.1419,203
0.1419,201
0.1419,197
0.1419,193
0.1419,191
0.1419,192
0.1419,197
0.1419,201
0.1419,203
0.1419,202
0.1419,198
0.1419,194
0.1419,191
0.1419,191
0.1419,195
0.1419,200
0.1419,203
0.1506,203
0.1506,200
0.1506,195
0.1506,191
0.1506,191
0.1506,193
0.1506,198
0.1506,202
0.1506,203
0.1506,201
0.1526,196
0.1526,192
0.1526,191
0.1526,192
0.1526,197
0.1526,201
0.1526,203
0.1526,202
0.1526,198
0.1526,193
0.1526,191
0.1546,191
0.1546,195
0.1546,200
0.1546,203
0.1546,203
0.1546,200
0.1546,195
0.1546,192
0.1546,191
0.1546,194
0.1546,198
0.1546,202
0.1546,203
0.1566,201
0.1566,197
0.1566,193
0.1566,191
0.1566,192
0.1566,197
0.1566,201
0.1566,203
0.1566,202
0.1566,198
0.1566,194
0.1566,191
0.1566,191
0.1586,195
0.1586,200
0.1586,203
0.1586,203
0.1586,200
0.1586,195
0.1586,192
0.1586,191
0.1586,194
0.1586,198
0.1586,202
0.1586,203
0.1586,201
0.1586,197
0.1586,193
0.1606,191
0.1606,192
0.1606,197
0.1606,201
0.1606,203
0.1606,202
0.1627,198
0.1647,194
0.1665,191
0.1685,191
0.171,195
0.173,200
0.175,203
0.177,203
0.1791,200
0.1811,195
0.1826,192
0.1846,191
0.1866,194
0.1886,198
0.1907,202
0.1927,203
0.1947,201
0.1967,197
0.1985,193
0.2005,191
0.2025,192
0.2045,197
0.2065,201
0.2086,203
0.2106,202
0.2126,198
0.2144,194
0.2164,191
0.2184,191
0.2204,195
0.2224,200
0.2244,203
0.2264,203
0.2285,200
0.2302,195
0.2322,191
0.2342,191
0.2363,194
0.2383,198
0.2403,202
0.2423,203
0.2443,201
0.2461,197
0.2481,193
0.2481,191
0.2481,192
0.2481,197
0.2481,201
0.2481,203
0.2481,202
0.2619,198
0.2619,194
0.2619,191
0.2619,191
0.2619,195
0.2714,200
0.2714,203
0.2714,203
0.2779,200
0.2799,195
0.2819,191
0.284,191
0.286,194
0.288,198
0.29,202
0.292,203
0.2938,201
0.2938,197
0.2938,192
0.2938,191
0.2938,192
0.2938,196
0.2938,201
0.3095,203
0.3095,202
0.3117,198
0.3138,194
0.3158,191
0.3178,191
0.3198,195
0.3218,200
0.3254,203
0.3254,203
0.3254,200
0.3254,195
0.3254,192
0.3254,191
0.3254,194
0.3254,198
0.3411,202
0.3434,203
0.3448,201
0.3472,197
0.3494,193
0.3516,191
0.3532,193
0.3546,197
0.3572,201
0.3572,203
0.3572,203
0.3572,199
0.3572,194
0.3572,191
0.3572,191
0.3572,195
0.3733,200
0.3756,203
0.3756,203
0.3776,200
0.3796,195
0.3816,191
0.3836,191
0.3856,194
0.3894,198
0.3894,202
0.3894,203
0.3894,201
0.3894,197
0.3894,193
0.3894,191
0.3894,192
0.4053,197
0.4073,201
0.4093,203
0.4113,203
0.4133,199
0.4153,194
0.4174,191
0.4194,191
0.4211,195
0.4232,200
0.4252,203
0.4272,203
0.4292,200
0.4312,195
0.4332,191
0.4352,191
0.437,193
0.439,198
0.441,202
0.443,203
0.4451,202
0.4471,197
0.4491,193
0.4511,191
0.4529,192
0.4549,196
0.4569,201
0.4589,203
0.4609,202
0.4629,199
0.465,194
0.467,191
0.4687,191
0.4707,195
0.4718,200
0.4738,204
0.4758,204
0.4778,201
0.4798,197
0.4819,193
0.4839,192
0.4859,195
0.4879,199
0.4899,202
0.4919,203
0.4939,201
0.4959,196
0.498,192
0.4997,190
0.4997,191
0.4997,196
0.4997,200
0.4997,202
0.4997,201
0.4997,198
0.4997,193
0.5167,190
0.5195,191
0.521,195
0.5228,200
0.5244,203
0.526,203
0.5275,200
0.5315,196
0.5335,192
0.5355,191
0.5375,193
0.5385,198
0.5385,202
0.5423,203
0.5444,202
0.5463,197
0.5485,193
0.5505,191
0.5525,192
0.5543,196
0.5563,201
0.5583,204
0.5603,203
0.5623,199
0.5623,194
0.5623,191
0.5623,191
0.5711,195
0.5722,200
0.5742,203
0.5762,203
0.5783,200
0.5803,196
0.5823,192
0.5843,191
0.5872,193
0.5872,198
0.5872,202
0.5872,203
0.5872,202
0.5872,197
0.5872,193
0.5872,191
0.6019,192
0.6039,196
0.6059,201
0.6079,203
0.6099,203
0.612,199
0.614,194
0.616,191
0.6178,191
0.6198,195
0.6218,199
0.6238,203
0.6258,203
0.6278,200
0.6299,196
0.6319,192
0.6337,191
0.6358,193
0.6378,198
0.6398,202
0.6418,203
0.6438,201
0.6458,197
0.6458,193
0.6506,191
0.6526,192
0.6547,196
0.6567,201
0.6587,203
0.6607,203
0.6627,199
0.6648,194
0.6648,191
0.669,191
0.6701,195
0.6728,200
0.6744,203
0.676,203
0.6791,201
0.6808,196
0.6808,192
0.6808,191
0.6808,194
0.6808,198
0.6808,202
0.6808,204
0.6808,202
0.6965,197
0.6965,193
0.6965,191
0.6965,192
0.6965,197
0.6965,201
0.6965,204
0.6965,203
0.7123,199
0.7143,195
0.7163,191
0.7183,192
0.7203,195
0.7223,200
0.7244,203
0.7264,203
0.7281,201
0.7301,196
0.7322,192
0.7342,191
0.7362,193
0.7382,198
0.7402,202
0.7423,203
0.744,202
0.746,197
0.7481,193
0.7501,190
0.7521,192
0.7541,196
0.7561,201
0.7581,203
0.7599,202
0.7599,198
0.7599,194
0.7599,191
0.7599,191
0.7599,194
0.7726,199
0.7726,202
0.7768,203
0.7789,200
0.7789,195
0.7789,191
0.7789,191
0.7789,193
0.7789,198
0.7789,202
0.7933,203
0.7938,202
0.7959,197
0.7959,193
0.7959,191
0.7959,192
0.7959,196
0.7959,201
0.8079,203
0.8079,202
0.8079,199
0.8079,194
0.8079,191
0.8079,191
0.8079,195
0.8079,199
0.824,203
0.824,203
0.824,200
0.824,196
0.824,192
0.824,191
0.824,193
0.8377,198
0.8399,202
0.8419,203
0.8439,202
0.846,197
0.8484,193
0.8504,191
0.8504,192
0.8504,196
0.8561,201
0.8561,203
0.8561,203
0.8561,199
0.8561,194
0.8561,191
0.8561,191
0.8561,195
0.8726,199
0.8726,203
0.8726,203
0.8726,200
0.8726,196
0.8726,192
0.8726,191
0.8726,193
0.8881,198
0.8903,202
0.8924,203
0.8944,202
0.8964,198
0.8984,193
0.9004,191
0.9024,192
0.9042,196
0.9062,201
0.9062,203
0.9062,203
0.9062,199
0.9062,194
0.9062,191
0.9062,192
0.9202,195
0.9202,200
0.9202,204
0.9202,204
0.9202,201
0.9202,196
0.9202,192
0.9202,191
0.9363,194
0.9363,198
0.9363,202
0.9426,204
0.9426,202
0.9426,198
0.9426,193
0.9426,190
0.9525,192
0.9525,196
0.9525,201
0.9525,203
0.9525,203
0.9637,199
0.9637,194
0.9637,191
0.9684,191
0.9704,195
0.9726,200
0.9726,203
0.9726,203
0.9726,200
0.9726,196
0.9726,192
0.9849,191
0.9871,193
0.9889,198
0.9905,202
0.9905,203
0.9905,202
0.9969,197
1.0002,193
1.0002,190
1.0022,192
1.0022,196
1.0022,200
1.0022,203
1.0102,203
1.0129,199
1.0161,194
1.0161,191
1.0161,191
1.0161,194
1.0161,199
1.0246,203
1.0266,203
1.0286,200
1.0286,195
1.0323,192
1.0323,191
1.0364,193
1.0384,198
1.0404,202
1.0424,203
1.0424,202
1.0424,197
1.0497,193
1.0497,191
1.0527,191
1.0527,196
1.0574,200
1.0574,203
1.0574,203
1.0635,199
1.0659,194
1.0677,191
1.0691,191
1.0711,195
1.0731,199
1.0751,203
1.0751,203
1.0793,200
1.081,196
1.0826,192
1.0852,191
1.0868,193
1.0884,197
1.0884,201
1.0916,203
1.0959,201
1.0962,197
1.0993,192
1.1003,190
1.1031,191
1.1048,196
1.1065,200
1.1079,203
1.1123,202
1.1137,199
1.1137,194
1.1166,191
1.1194,190
1.1202,194
1.1216,199
1.1244,202
1.1244,202
1.1244,200
1.1306,195
1.1306,191
1.1337,190
1.1362,192
1.1374,198
1.1374,202
1.1374,203
1.1374,201
1.1475,197
1.1486,192
1.1502,190
1.1519,191
1.1552,196
1.1565,200
1.1582,203
1.1582,202
1.1623,199
1.1623,195
1.1677,191
1.17,191
1.17,194
1.1726,199
1.1726,203
1.1726,203
1.1789,201
1.1789,196
1.1832,192
1.1832,191
1.1832,193
1.1893,198
1.1893,202
1.1893,203
1.1958,202
1.1958,197
1.1958,193
1.1958,191
1.2019,192
1.2019,196
1.2019,201
1.2019,204
1.2097,204
1.2123,200
1.2145,196
1.2145,192
1.218,192
1.2208,195
1.2208,199
1.2208,202
1.2208,202
1.2293,199
1.2313,195
1.2333,190
1.235,189
1.2371,192
1.2371,196
1.2413,200
1.2413,202
1.246,201
1.246,197
1.246,193
1.246,191
1.253,192
1.253,197
1.2562,201
1.2562,204
1.2562,203
1.2622,200
1.2622,195
1.2671,191
1.2671,192
1.2707,195
1.2728,199
1.2728,203
1.2728,203
1.2789,201
1.2789,196
1.2833,193
1.2851,191
1.2871,193
1.2891,198
1.2891,202
1.2891,204
1.296,202
1.296,198
1.296,193
1.296,191
1.296,192
1.296,196
1.296,201
1.296,204
1.3117,203
1.3117,199
1.3117,195
1.3117,191
1.3117,191
1.3117,194
1.3117,199
1.3117,203
1.3277,203
1.3277,201
1.3277,196
1.3277,192
1.3277,191
1.3277,193
1.3277,198
1.3277,202
1.3437,204
1.3454,202
1.347,198
1.3495,193
1.3509,191
1.3531,192
1.3551,196
1.3559,201
1.3593,203
1.3593,203
1.3593,199
1.3593,195
1.3593,191
1.3593,191
1.3593,194
1.3731,199
1.3751,203
1.3751,203
1.3751,201
1.3801,196
1.3801,192
1.3801,191
1.3801,193
1.3801,198
1.3913,202
1.3933,204
1.3953,202
1.3973,198
1.3988,194
1.4015,191
1.4037,192
1.4049,196
1.4067,201
1.4092,204
1.4092,203
1.4092,200
1.4092,195
1.4092,191
1.4092,192
1.4092,195
1.4228,199
1.4228,203
1.4228,203
1.4228,201
1.4228,196
1.4228,192
1.4228,191
1.4365,193
1.4386,198
1.4386,202
1.4386,204
1.4386,202
1.4386,198
1.4493,194
1.4493,191
1.4493,192
1.4543,196
1.4543,201
1.4543,203
1.4543,203
1.4543,200
1.4543,195
1.4543,191
1.4543,191
1.4701,194
1.4734,199
1.4734,203
1.477,203
1.477,201
1.477,196
1.4833,192
1.4833,191
1.4859,193
1.4859,197
1.4859,201
1.4931,203
1.4931,202
1.4967,197
1.4967,193
1.5015,190
1.5015,191
1.5015,196
1.5075,200
1.5075,203
1.5075,203
1.5075,199
1.5075,194
1.5173,191
1.5173,191
1.5173,194
1.5236,199
1.5236,202
1.5236,203
1.5283,201
1.5303,196
1.5333,192
1.5342,191
1.5362,193
1.538,197
1.54,202
1.542,204
1.542,202
1.542,198
1.5492,193
1.5512,191
1.5512,192
1.5512,196
1.5573,200
1.5573,203
1.5604,203
1.5623,199
1.5649,195
1.5649,191
1.5649,191
1.5649,194
1.5649,199
1.5735,203
1.5735,203
1.5774,201
1.5814,197
1.5818,192
1.5818,191
1.5873,193
1.5873,199
1.5873,204
1.5873,206
1.5873,204
1.5955,200
1.599,195
1.599,192
1.599,193
1.6038,196
1.6038,201
1.6038,204
1.6038,203
1.6133,200
1.6136,195
1.6136,191
1.6136,191
1.6203,194
1.6203,199
1.6203,203
1.6203,204
1.6289,201
1.6299,196
1.6299,193
1.6299,191
1.6373,193
1.6388,198
1.6388,202
1.6427,204
1.6458,202
1.6458,198
1.6458,194
1.6506,191
1.6506,191
1.6506,196
1.6506,201
1.6506,203
1.6506,203
1.6619,199
1.664,195
1.664,191
1.664,191
1.664,194
1.6739,199
1.6739,202
1.6739,203
1.6801,200
1.6801,196
1.6821,192
1.6821,190
1.6821,192
1.6821,197
1.6821,201
1.6926,203
1.6937,201
1.6961,197
1.6983,193
1.7007,190
1.7007,190
1.7007,194
1.7007,199
1.7093,202
1.7093,202
1.7133,198
1.7148,194
1.7169,190
1.7169,190
1.7169,193
1.7169,198
1.7252,201
1.7252,202
1.7252,200
1.7312,195
1.7336,191
1.7356,190
1.736,191
1.7397,196
1.7415,201
1.7426,203
1.7426,201
1.7477,198
1.7481,192
1.7515,190
1.7532,191
1.7548,195
1.7548,199
1.7591,203
1.7601,202
1.7601,199
1.7601,194
1.7664,191
1.7664,190
1.7664,194
1.7664,198
1.7742,202
1.7762,203
1.7762,201
1.7806,196
1.7824,192
1.7824,191
1.7866,193
1.7866,197
1.7912,201
1.7912,204
1.7956,202
1.7972,198
1.7972,193
1.7972,191
1.7972,192
1.7972,196
1.7972,200
1.7972,203
1.8116,203
1.8127,199
1.8147,194
1.8173,191
1.8198,191
1.8211,193
1.8234,198
1.8253,202
1.8277,203
1.8289,201
1.8289,197
1.8328,192
1.8348,191
1.8373,193
1.8373,197
1.8373,202
1.8427,203
1.8457,203
1.8457,198
1.8457,194
1.8497,191
1.8497,192
1.8497,196
1.8497,200
1.8588,203
1.8588,203
1.8638,200
1.8638,195
1.8638,192
1.8638,191
1.8638,194
1.8638,199
1.8742,203
1.8742,203
1.879,201
1.8805,197
1.8805,193
1.8805,191
1.8805,193
1.8805,197
1.8902,202
1.8922,204
1.8922,203
1.8976,198
1.8996,194
1.8996,191
1.8996,192
1.8996,196
1.907,201
1.907,203
1.907,203
1.9136,200
1.9136,195
1.9158,191
1.9158,191
1.9158,194
1.9223,199
1.9223,203
1.9223,204
1.9223,202
1.9315,197
1.9315,193
1.9315,192
1.9315,194
1.9315,199
1.9315,203
1.9315,205
1.9315,203
1.9465,198
1.9482,193
1.9502,190
1.9502,191
1.9502,195
1.9502,199
1.9502,202
1.9502,202
1.9636,198
1.9636,193
1.9657,190
1.9657,190
1.9657,193
1.9657,198
1.9746,203
1.9746,204
1.9794,202
1.9809,197
1.9829,193
1.9829,191
1.9829,193
1.9829,197
1.9829,202
1.9829,204
1.9959,202
1.9974,198
1.9994,194
1.9994,191
1.9994,191
1.9994,196
1.9994,200
1.9994,203
2.0103,203
2.0137,200
2.0137,195
2.0157,191
2.0157,191
2.0157,194
2.0157,199
2.0157,202
2.026,203
2.0293,201
2.0309,197
2.0309,193
2.0309,191
2.0309,193
2.0309,197
2.0309,201
2.0421,203
2.0462,202
2.0479,198
2.0479,194
2.0499,191
2.0499,191
2.0499,195
2.0499,200
2.0582,203
2.0582,203
2.0624,200
2.0639,195
2.0659,191
2.0659,191
2.0659,194
2.0659,199
2.0752,202
2.0752,203
2.0793,201
2.0805,197
2.0825,192
2.0825,191
2.0825,193
2.0825,197
2.0901,201
2.0901,204
2.096,203
2.0972,198
2.0992,194
2.0992,191
2.0992,192
2.0992,195
2.1061,200
2.1061,203
2.1061,203
2.1124,200
2.1151,195
2.1172,192
2.1172,191
2.1172,194
2.1172,199
2.1172,203
2.1172,204
2.129,201
2.1312,197
2.1312,193
2.1312,191
2.1312,193
2.1312,197
2.1312,201
2.1312,204
2.1462,203
2.1479,198
2.1479,194
2.1479,191
2.1479,192
2.1479,195
2.1479,200
2.1479,203
2.1609,203
2.1641,200
2.1641,195
2.1661,191
2.1661,191
2.1661,194
2.1661,199
2.1756,202
2.1769,204
2.1792,201
2.1806,197
2.1827,193
2.1827,191
2.1827,193
2.1827,197
2.1827,202
2.1929,204
2.1929,202
2.1977,198
2.1977,194
2.1997,191
2.1997,191
2.1997,195
2.1997,200
2.2088,203
2.2088,203
2.2136,199
2.2156,195
2.2156,191
2.2156,191
2.2156,193
2.2156,198
2.2247,202
2.2247,203
2.2247,201
2.2305,196
2.2326,192
2.2326,191
2.2326,192
2.2326,197
2.2408,201
2.2408,203
2.2459,202
2.2472,198
2.2492,194
2.2492,191
2.2492,191
2.2492,195
2.2568,200
2.2568,203
2.2568,203
2.2635,200
2.2655,195
2.2655,192
2.2655,191
2.2655,194
2.2728,198
2.2758,202
2.2758,203
2.2758,201
2.2816,197
2.2816,192
2.2858,191
2.2858,192
2.2858,197
2.2858,201
2.2858,203
2.296,202
2.2972,198
2.2995,194
2.2995,191
2.2995,191
2.2995,195
2.2995,200
2.2995,203
2.312,203
2.3137,200
2.3137,195
2.3158,191
2.3158,191
2.3158,194
2.3158,198
2.3158,202
2.3158,203
2.328,201
2.3301,197
2.3323,193
2.3323,191
2.3323,192
2.3323,197
2.3323,201
2.3323,203
2.3459,203
2.3475,198
2.3475,194
2.3475,191
2.3475,191
2.3475,195
2.3475,200
2.3475,203
2.3604,203
2.3636,200
2.3636,195
2.3656,192
2.3656,191
2.3656,194
2.3656,199
2.3656,202
2.3762,203
2.379,201
2.3804,197
2.3824,193
2.3824,191
2.3824,192
2.3824,197
2.3824,201
2.3922,203
2.3961,202
2.3976,198
2.3976,194
2.3996,191
2.3996,191
2.3996,195
2.3996,200
2.4081,203
2.4081,203
2.4134,200
2.4155,195
2.4155,191
2.4155,191
2.4155,194
2.4155,198
2.4241,202
2.4241,203
2.4292,201
2.4304,197
2.4324,193
2.4324,191
2.4324,193
2.4324,197
2.4402,201
2.4422,203
2.4455,202
2.4467,198
2.4487,194
2.4487,191
2.4487,191
2.4487,195
2.456,200
2.456,203
2.456,203
2.4636,200
2.4636,195
2.4657,192
2.4657,191
2.4657,194
2.4721,198
2.4721,202
2.4767,203
2.4793,201
2.4803,197
2.4803,193
2.4803,191
2.4803,192
2.4803,197
2.4803,201
2.4803,204
2.496,202
2.4975,198
2.4988,194
2.5004,191
2.5037,191
2.5052,195
2.5072,200
2.5072,203
2.5121,203
2.5134,200
2.5155,195
2.5155,192
2.5155,191
2.5155,194
2.5155,198
2.5155,202
2.5155,204
2.5281,201
2.5308,197
2.5329,193
2.5329,191
2.5329,192
2.5329,197
2.5329,201
2.5437,204
2.5437,203
2.5469,199
2.5482,194
2.5502,191
2.5523,191
2.5523,195
2.5523,200
2.5594,203
2.5594,203
2.5634,200
2.5656,195
2.5656,191
2.5676,191
2.5676,194
2.5676,198
2.5752,202
2.577,203
2.5794,201
2.5794,197
2.5833,193
2.5833,191
2.5875,192
2.5895,196
2.5895,201
2.5895,203
2.5959,202
2.5959,198
2.5992,194
2.5992,191
2.5992,191
2.6043,195
2.6043,200
2.6043,203
2.6043,203
2.6133,200
2.6133,195
2.6133,192
2.6133,191
2.6223,193
2.6223,198
2.6223,202
2.6223,203
2.6292,201
2.6292,197
2.6292,193
2.6292,191
2.6292,193
2.6292,197
2.6292,202
2.6292,205
2.6452,204
2.6469,200
2.6469,195
2.6469,192
2.6469,192
2.6469,195
2.6469,199
2.6469,202
2.6612,202
2.6633,199
2.6633,194
2.6677,191
2.6697,190
2.6717,192
2.6737,197
2.6752,201
2.6778,202
2.6795,201
2.6795,197
2.6795,193
2.6795,191
2.6795,193
2.6795,197
2.6795,201
2.6936,204
2.6936,203
2.6976,199
2.6976,194
2.6997,191
2.7017,191
2.7042,195
2.7062,200
2.7098,203
2.7098,203
2.7098,200
2.7098,195
2.7098,192
2.7098,191
2.7098,193
2.7098,198
2.7257,202
2.7257,203
2.7257,202
2.7257,197
2.7257,193
2.7257,191
2.7257,192
2.7257,197
2.7414,201
2.7414,203
2.7414,202
2.7414,199
2.7414,194
2.7414,191
2.7414,191
2.7414,195
2.7576,200
2.7592,203
2.7592,203
2.7633,200
2.7633,196
2.7633,192
2.7633,191
2.7633,193
2.7737,198
2.7737,202
2.7779,203
2.7779,201
2.7779,197
2.7779,193
2.7779,191
2.7779,192
2.7896,196
2.7896,201
2.7917,203
2.7968,202
2.7968,199
2.7968,194
2.7968,191
2.7968,191
2.8056,195
2.8056,199
2.8076,203
2.8076,203
2.8076,200
2.8076,196
2.8076,192
2.8076,191
2.8217,193
2.8217,198
2.8217,202
2.8217,203
2.8217,202
2.8217,197
2.8217,193
2.8217,191
2.8377,192
2.8377,197
2.8377,201
2.8377,203
2.8377,203
2.8377,199
2.8377,194
2.8377,191
2.8537,191
2.8537,195
2.8537,200
2.8537,203
2.8537,203
2.8537,200
2.8537,196
2.8537,192
2.8697,191
2.8717,194
2.8717,198
2.8717,202
2.878,203
2.878,202
2.878,197
2.878,193
2.8857,191
2.8857,192
2.8857,197
2.8857,201
2.8857,203
2.8857,203
2.8857,199
2.8857,194
2.9017,191
2.9017,191
2.9017,195
2.9017,199
2.9017,203
2.9017,203
2.9017,200
2.9017,195
2.9178,191
2.9178,191
2.9219,193
2.9239,198
2.9239,202
2.9239,203
2.9239,201
2.9239,197
2.9337,192
2.9344,190
2.9344,191
2.9344,196
2.9344,201
2.9344,203
2.9344,202
2.9344,199
2.9499,194
2.9499,191
2.9499,191
2.9499,195
2.9499,199
2.9499,203
2.9499,203
2.9499,200
2.9658,195
2.9677,192
2.969,191
2.969,193
2.969,198
2.969,202
2.969,203
2.9783,202
2.9817,197
2.9817,193
2.9817,191
2.9817,192
2.9817,196
2.9817,201
2.9817,203
2.9817,203
2.9977,199
2.9977,194
2.9977,191
2.9977,191
2.9977,195
2.9977,199
2.9977,203
2.9977,203
3.0134,200
3.0134,196
3.0134,192
3.0134,191
3.0134,193
3.0134,198
3.0134,202
3.0134,203
3.0296,202
3.0296,197
3.0296,193
3.0296,191
3.0296,192
3.0296,196
3.0296,201
3.0296,203
3.0455,203
3.0455,199
3.0455,194
3.0455,191
3.0455,191
3.0455,195
3.0455,199
3.0455,203
3.0615,203
3.0615,200
3.0615,196
3.0615,192
3.0615,191
3.0615,193
3.0615,198
3.0615,202
3.0776,203
3.0782,202
3.0782,197
3.0782,193
3.0782,191
3.0782,192
3.0782,196
3.0782,201
3.0937,203
3.0937,203
3.0937,199
3.0937,194
3.0937,191
3.0937,191
3.0937,195
3.0937,199
3.1097,203
3.1097,203
3.1128,200
3.1128,196
3.1128,192
3.1128,191
3.1128,193
3.1128,198
3.1257,202
3.1271,204
3.1271,202
3.1271,197
3.1271,193
3.1271,191
3.1271,192
3.1271,196
3.1417,201
3.1417,203
3.1417,203
3.1417,199
3.1417,194
3.1417,191
3.1417,191
3.1417,194
3.1577,199
3.1577,203
3.1577,203
3.1577,200
3.1577,196
3.1577,192
3.1577,191
3.1577,193
3.1736,198
3.1754,202
3.1754,203
3.1781,202
3.1817,197
3.1837,193
3.1857,191
3.1871,192
3.1897,196
3.1912,201
3.1937,203
3.1952,203
3.1968,199
3.1968,194
3.1968,191
3.1968,191
3.2056,195
3.2075,199
3.2075,203
3.2075,203
3.2075,201
3.2075,196
3.2075,192
3.2075,191
3.2216,193
3.2216,198
3.2216,202
3.2216,203
3.2216,202
3.2216,197
3.2216,193
3.2216,191
3.2376,192
3.2397,196
3.2412,201
3.2437,203
3.2452,203
3.2452,199
3.2452,194
3.2452,191
3.2536,191
3.2536,195
3.2536,199
3.2536,203
3.2536,203
3.2536,200
3.2536,196
3.2536,192
3.2696,191
3.2696,193
3.2737,198
3.2737,202
3.2737,203
3.2784,202
3.2784,197
3.2784,193
3.2855,191
3.2855,192
3.2855,196
3.2855,201
3.2855,203
3.2855,203
3.2855,199
3.2855,194
3.3014,191
3.3025,191
3.3057,194
3.3075,199
3.3097,203
3.3112,203
3.3112,201
3.3112,196
3.3174,192
3.3197,191
3.3217,193
3.3217,198
3.3217,202
3.3217,203
3.3217,202
3.3217,197
3.3335,193
3.3357,191
3.3377,192
3.3397,196
3.3412,201
3.3437,203
3.3437,203
3.3472,199
3.3494,195
3.3494,192
3.3494,192
3.3494,195
3.3494,200
3.3494,204
3.3494,204
3.3494,202
3.3653,197
3.3653,193
3.3653,191
3.3653,193
3.3653,197
3.3653,201
3.3653,203
3.3785,201
3.3812,197
3.3812,192
3.3812,190
3.3812,191
3.3812,195
3.3812,200
3.3812,203
3.3812,203
3.3973,199
3.3973,195
3.3973,192
3.3973,192
3.3973,195
3.3973,199
3.3973,203
3.3973,203
3.4133,201
3.4133,196
3.4133,192
3.4133,191
3.4133,193
3.4133,198
3.4133,202
3.4133,203
3.4293,202
3.4293,198
3.4293,193
3.4293,191
3.4293,192
3.4293,196
3.4293,200
3.4293,203
3.4452,203
3.4452,199
3.4452,195
3.4452,191
3.4452,191
3.4452,194
3.4452,199
3.4452,203
3.4612,203
3.4632,200
3.4632,196
3.4632,192
3.4632,191
3.4632,193
3.4632,198
3.4632,202
3.4772,203
3.4788,202
3.4788,197
3.4788,193
3.4788,191
3.4788,191
3.4788,196
3.4788,201
3.4931,203
3.4952,203
3.4952,199
3.4952,194
3.4952,191
3.4952,191
3.4952,195
3.4952,199
3.5091,203
3.5091,203
3.5091,201
3.5091,196
3.5091,192
3.5091,191
3.5091,193
3.5091,198
3.5252,202
3.5277,203
3.5295,202
3.5295,198
3.5295,193
3.5295,191
3.5295,192
3.5295,196
3.5413,201
3.5413,203
3.5413,203
3.5413,199
3.5413,195
3.5413,191
3.5413,191
3.5413,195
3.5575,199
3.5597,203
3.5612,203
3.5612,201
3.5657,196
3.5657,192
3.5657,191
3.5657,193
3.5736,198
3.5757,202
3.5757,204
3.5789,202
3.5789,198
3.5789,193
3.5789,191
3.5789,192
3.5896,196
3.5896,201
3.5896,203
3.5896,203
3.5968,199
3.5988,195
3.6008,191
3.6028,191
3.6048,194
3.6068,199
3.6088,203
3.6088,203
3.6129,201
3.6129,196
3.6129,192
3.6129,191
3.621,193
3.621,197
3.621,202
3.621,203
3.621,202
3.621,197
3.621,193
3.621,191
3.6369,191
3.6396,195
3.6396,200
3.6428,203
3.6428,202
3.6428,199
3.6428,194
3.6519,191
3.6533,191
3.6557,194
3.6575,199
3.6593,202
3.6614,203
3.6633,201
3.6633,196
3.6633,192
3.6687,191
3.6687,193
3.6687,197
3.6687,201
3.6687,203
3.6792,202
3.6792,197
3.6792,193
3.6845,191
3.6845,191
3.6845,196
3.6845,200
3.6845,203
3.6845,203
3.6845,199
3.6845,195
3.7005,191
3.703,191
3.705,194
3.707,199
3.707,202
3.707,203
3.7131,201
3.7152,196
3.7176,192
3.7196,191
3.7216,193
3.7236,198
3.7256,202
3.7276,204
3.729,202
3.729,198
3.729,193
3.729,191
3.7377,192
3.7377,196
3.7377,200
3.7377,203
3.7377,203
3.7377,199
3.7377,195
3.7377,191
3.7536,191
3.7536,194
3.7536,199
3.7536,203
3.7536,203
3.7536,201
3.7536,196
3.7536,192
3.7694,191
3.7694,193
3.7694,198
3.7694,202
3.7694,204
3.7794,202
3.7794,198
3.7794,193
3.7857,191
3.7857,192
3.7857,196
3.7857,200
3.7857,203
3.7857,203
3.7857,199
3.7857,195
3.8015,191
3.8036,191
3.8036,194
3.8036,199
3.8036,203
3.8036,203
3.8036,201
3.8036,196
3.8174,192
3.8174,191
3.8174,193
3.8174,197
3.8174,202
3.8174,203
3.8294,202
3.8294,198
3.8335,193
3.8352,191
3.8376,191
3.8392,196
3.8412,200
3.8431,203
3.845,203
3.8476,199
3.8493,195
3.8493,191
3.8493,191
3.8493,194
3.8493,199
3.8493,203
3.8493,203
3.8629,201
3.8654,196
3.8676,193
3.8676,191
3.8676,193
3.8676,197
3.8676,202
3.8676,203
3.8676,202
3.8816,198
3.8838,193
3.8859,191
3.8878,192
3.8878,196
3.8878,200
3.8925,203
3.8925,203
3.8975,199
3.8982,195
3.8982,191
3.8982,191
3.8982,194
3.8982,199
3.8982,202
3.8982,203
3.9132,201
3.9132,196
3.9132,192
3.9132,191
3.9132,193
3.9132,197
3.9132,201
3.9132,203
3.929,202
3.9311,198
3.9311,193
3.9311,191
3.9311,191
3.9311,196
3.9311,200
3.9311,203
3.9451,203
3.947,199
3.9497,195
3.9517,191
3.9517,191
3.9517,194
3.9517,199
3.9517,202
3.9612,203
3.9612,201
3.9612,196
3.9612,192
3.9612,191
3.9612,193
3.9612,197
3.9612,202
3.9774,204
3.9774,202
3.98,198
3.98,193
3.98,191
3.98,191
3.98,196
3.98,200
3.9947,203
3.9947,203
3.9947,199
3.9947,195
3.9947,191
3.9947,191
3.9947,194
3.9947,199
4.0096,202
4.0112,203
4.0112,201
4.0112,196
4.0112,192
4.0112,191
4.0112,193
4.0112,197
4.0256,202
4.0256,203
4.0256,202
4.0256,198
4.0256,193
4.0256,191
4.0256,191
4.0256,196
4.0416,200
4.0416,203
4.0416,203
4.0416,199
4.0416,195
4.0416,191
4.0416,191
4.0416,194
4.0575,199
4.0575,203
4.0575,203
4.0575,201
4.0575,196
4.0575,192
4.0575,191
4.0575,193
4.0735,197
4.0735,201
4.0735,203
4.0735,202
4.0801,198
4.0801,194
4.0801,191
4.0801,192
4.0895,196
4.0912,201
4.0912,204
4.0912,204
4.0912,201
4.0912,196
4.0912,192
4.0912,191
4.1055,193
4.1055,198
4.1055,201
4.1055,202
4.1055,200
4.1055,196
4.1055,191
4.1055,190
4.1215,191
4.1237,196
4.1257,201
4.1277,203
4.1277,202
4.1317,198
4.1317,194
4.1317,191
4.1374,192
4.1397,196
4.1397,201
4.1397,204
4.1397,203
4.1397,200
4.1397,195
4.1397,191
4.1535,191
4.1535,194
4.1535,199
4.1535,202
4.1535,203
4.1535,201
4.1535,197
4.1535,193
4.1696,191
4.1696,193
4.1696,197
4.1696,201
4.1696,203
4.1794,202
4.1806,198
4.1806,193
4.1855,191
4.1877,192
4.1897,195
4.1912,200
4.1937,203
4.1937,203
4.1937,200
4.1937,195
4.2015,191
4.2015,191
4.2015,194
4.2015,199
4.2015,202
4.2015,203
4.2015,201
4.2015,197
4.2174,192
4.2197,191
4.2197,193
4.2197,197
4.2197,201
4.2197,203
4.2197,202
4.2197,198
4.2333,194
4.2353,191
4.2353,191
4.2353,196
4.2353,200
4.2353,203
4.2353,203
4.2473,200
4.2499,195
4.2519,192
4.2539,191
4.2551,194
4.2551,199
4.2551,202
4.2551,203
4.2628,201
4.2628,196
4.2628,192
4.2628,191
4.2712,192
4.2737,197
4.2757,201
4.2757,204
4.2757,202
4.2809,198
4.2837,194
4.2856,191
4.2876,192
4.2899,196
4.2911,200
4.2929,204
4.2929,203
4.2929,200
4.2929,195
4.2929,192
4.3034,191
4.3052,194
4.3072,199
4.3072,203
4.3072,203
4.3072,201
4.3072,197
4.3072,193
4.3194,191
4.3214,193
4.3232,197
4.3232,202
4.3232,204
4.3232,203
4.3232,198
4.3232,194
4.3354,191
4.3372,191
4.3392,195
4.3412,200
4.3432,203
4.3432,203
4.3472,200
4.3492,195
4.3512,191
4.3512,191
4.3512,194
4.3512,199
4.3512,202
4.3512,203
4.3512,201
4.3512,197
4.3671,192
4.3691,190
4.3711,192
4.3711,197
4.3711,201
4.3711,203
4.3711,202
4.3812,198
4.3831,193
4.3831,191
4.3831,191
4.3892,195
4.3892,200
4.3892,203
4.3892,203
4.3892,199
4.3992,195
4.4012,191
4.4012,191
4.4012,194
4.4012,198
4.4012,202
4.4012,203
4.4012,201
4.416,196
4.4165,192
4.4186,191
4.4186,192
4.4186,197
4.4186,201
4.4186,203
4.4186,202
4.4312,198
4.4337,194
4.4357,191
4.4377,191
4.4397,195
4.4412,200
4.4437,203
4.4451,203
4.4472,200
4.449,195
4.449,191
4.449,191
4.449,194
4.449,198
4.449,202
4.449,203
4.4633,201
4.4633,197
4.4633,192
4.4633,190
4.4633,192
4.4633,197
4.4633,201
4.4633,204
4.4792,203
4.4813,198
4.4813,194
4.4813,191
4.4813,191
4.4813,195
4.4813,200
4.4813,203
4.4953,203
4.4953,200
4.4953,195
4.4953,191
4.4953,191
4.4953,194
4.4953,198
4.4953,202
4.5112,203
4.5132,201
4.5154,196
4.5154,193
4.5154,191
4.5154,192
4.5154,197
4.5154,201
4.5271,203
4.5284,202
4.5284,198
4.5284,194
4.5284,191
4.5284,191
4.5284,195
4.5284,200
4.5431,203
4.5431,203
4.5431,200
4.5431,195
4.5431,191
4.5431,191
4.5431,194
4.5431,199
4.559,202
4.5612,203
4.5612,201
4.5657,197
4.5677,192
4.5697,191
4.5717,192
4.5717,197
4.5749,201
4.5779,204
4.5779,203
4.5822,199
4.5837,194
4.5857,191
4.5877,192
4.5877,195
4.591,200
4.591,203
4.591,203
4.591,200
4.591,195
4.591,191
4.591,191
4.591,193
4.607,198
4.607,202
4.607,203
4.607,201
4.607,197
4.607,193
4.607,191
4.607,192
4.623,197
4.6257,201
4.6257,203
4.6257,202
4.6294,198
4.6294,194
4.6294,191
4.6294,191
4.639,195
4.639,200
4.639,203
4.639,203
4.639,200
4.639,195
4.639,192
4.639,191
4.655,194
4.655,198
4.655,202
4.655,203
4.655,201
4.655,197
4.655,192
4.655,191
4.6711,192
4.6711,197
4.6711,201
4.6711,203
4.6794,202
4.682,198
4.682,194
4.682,191
4.687,191
4.6885,195
4.6885,200
4.6885,203
4.6885,203
4.6885,200
4.6885,195
4.6885,192
4.7032,191
4.7032,194
4.7032,198
4.7032,202
4.7032,203
4.7032,201
4.7032,197
4.7032,193
4.721,191
4.721,193
4.7231,197
4.7258,201
4.7258,204
4.7258,203
4.7258,199
4.7258,194
4.7352,191
4.7352,191
4.7352,195
4.7352,199
4.7352,203
4.7352,203
4.7352,200
4.7352,195
4.7515,191
4.7515,191
4.7515,193
4.7515,198
4.7515,202
4.7515,203
4.7515,201
4.7515,197
4.7673,193
4.7692,191
4.7692,192
4.7692,197
4.7692,201
4.7692,203
4.7692,202
4.7799,198
4.7842,194
4.7857,191
4.7877,192
4.7897,195
4.7917,200
4.7932,203
4.7932,203
4.7968,200
4.7997,195
4.7997,191
4.7997,191
4.7997,194
4.7997,198
4.7997,202
4.7997,203
4.8119,201
4.8139,197
4.8139,193
4.8139,191
4.8139,192
4.8139,197
4.8139,201
4.8277,204
4.8277,203
4.8277,199
4.8277,195
4.8277,192
4.8277,193
4.8277,196
4.8277,201
4.8436,204
4.8436,203
4.8467,200
4.8467,195
4.8467,191
4.8467,190
4.8467,192
4.8467,197
4.8597,201
4.8597,202
4.8597,200
4.8597,195
4.8597,191
4.8597,190
4.8597,192
4.8597,197
4.8757,201
4.8772,204
4.8784,203
4.8802,199
4.8837,195
4.8837,191
4.8837,192
4.8837,195
4.8916,200
4.8931,203
4.8951,203
4.8951,200
4.8951,196
4.8951,192
4.8951,191
4.8951,194
4.9075,198
4.9075,202
4.9075,203
4.9075,201
4.9075,197
4.9075,193
4.9075,191
4.9075,192
4.9236,196
4.9236,201
4.9236,203
4.9236,202
4.9236,199
4.9236,194
4.9236,191
4.9236,191
4.9395,195
4.9395,199
4.9395,203
4.9395,203
4.9395,200
4.9395,195
4.9395,191
4.9395,191
4.9555,193
4.9555,198
4.9597,202
4.9619,203
4.963,202
4.9649,197
4.9666,193
4.9682,191
4.9716,192
4.9734,197
4.9757,201
4.9772,203
4.9805,203
4.9805,199
4.9818,194
4.984,191
4.9873,191
4.9873,195
4.9873,199
4.9873,203
4.9873,203
4.9873,200
4.9873,195
4.9873,192
5.0032,191
5.0052,193
5.0052,198
5.0052,202
5.0052,204
5.0052,202
5.0052,197
5.0052,193
5.0192,191
5.0212,192
5.0212,197
5.0212,201
5.0212,203
5.0212,203
5.0212,199
5.0212,194
5.0352,191
5.0352,191
5.0352,195
5.0352,200
5.0352,203
5.0352,203
5.0352,200
5.0352,195
5.0511,192
5.0511,191
5.0511,194
5.0511,198
5.0511,202
5.0511,204
5.0511,202
5.0511,197
5.0672,193
5.0692,191
5.0713,192
5.0733,197
5.0753,201
5.0773,203
5.0793,203
5.0813,199
5.0831,194
5.0846,191
5.0846,191
5.0846,195
5.0846,200
5.0846,203
5.0846,203
5.0846,200
5.0991,195
5.1017,191
5.1037,191
5.1057,193
5.1075,198
5.1075,202
5.1075,203
5.1075,201
5.1151,197
5.1151,192
5.1151,190
5.1151,192
5.1151,196
5.1151,200
5.1151,203
5.1151,202
5.1312,198
5.1312,194
5.1357,191
5.1357,191
5.1357,195
5.1357,199
5.1357,203
5.1357,203
5.1472,200
5.1472,195
5.1472,191
5.1472,191
5.1472,193
5.1472,198
5.1472,202
5.1472,203
5.1632,201
5.1632,197
5.1632,193
5.1632,191
5.1632,192
5.1632,196
5.1632,201
5.1632,203
5.179,203
5.179,199
5.184,194
5.184,191
5.184,191
5.184,195
5.184,199
5.184,203
5.195,203
5.1972,200
5.1997,196
5.2017,191
5.2037,191
5.2057,193
5.2075,198
5.2097,202
5.2112,203
5.2112,202
5.2157,197
5.2177,193
5.2197,191
5.2197,192
5.2197,197
5.2197,201
5.2289,203
5.2289,203
5.2316,199
5.2335,194
5.2354,191
5.2373,191
5.2392,195
5.2392,200
5.2433,203
5.2433,203
5.2433,200
5.2433,196
5.2433,192
5.2433,191
5.2433,193
5.2433,198
5.2592,202
5.2592,203
5.2592,202
5.2592,197
5.2592,193
5.2592,191
5.2592,192
5.2592,196
5.2751,201
5.2772,203
5.2772,203
5.2772,199
5.2772,194
5.284,191
5.284,191
5.284,195
5.2934,199
5.2934,203
5.2962,203
5.2962,200
5.2992,196
5.3012,192
5.3032,191
5.3052,193
5.3072,198
5.3092,202
5.3142,203
5.3142,202
5.3142,197
5.3142,193
5.3142,191
5.3142,192
5.3232,196
5.3253,201
5.3253,203
5.3253,203
5.3301,199
5.3301,194
5.3301,191
5.3301,191
5.3393,195
5.3393,199
5.3432,203
5.3451,203
5.3451,200
5.3497,195
5.3502,192
5.3502,191
5.3558,193
5.3572,198
5.3572,202
5.3572,203
5.3637,202
5.3637,197
5.3637,193
5.3637,191
5.3715,192
5.3735,196
5.3755,201
5.3755,203
5.3755,203
5.3755,199
5.3842,194
5.3842,191
5.3874,191
5.3897,195
5.3905,199
5.3905,203
5.3905,203
5.3905,200
5.3905,196
5.3905,192
5.4033,191
5.4033,193
5.4033,198
5.4033,202
5.4033,203
5.4033,202
5.4033,198
5.4033,193
5.4193,191
5.4202,192
5.4222,196
5.4222,201
5.4222,203
5.4222,203
5.4222,199
5.4222,194
5.4352,191
5.4385,192
5.4385,195
5.4385,200
5.4385,203
5.4385,203
5.4385,200
5.4385,196
5.4512,192
5.4512,191
5.4512,193
5.4512,198
5.4512,202
5.4512,203
5.4512,202
5.4512,198
5.4672,193
5.4697,191
5.4717,192
5.4737,196
5.4757,201
5.4757,203
5.4757,203
5.4757,199
5.483,194
5.4848,191
5.4848,191
5.4848,195
5.4848,199
5.4848,203
5.4848,203
5.4967,201
5.4989,196
5.5015,192
5.5037,191
5.5057,193
5.5057,198
5.5057,202
5.5057,203
5.5057,202
5.5151,197
5.5151,193
5.5151,191
5.5151,192
5.5151,196
5.5151,201
5.5151,203
5.5151,203
5.5311,199
5.5311,195
5.5311,191
5.5311,191
5.5311,195
5.5311,200
5.5311,203
5.5311,204
5.5472,201
5.5472,197
5.5472,193
5.5472,192
5.5472,194
5.5472,198
5.5472,202
5.5472,203
5.5631,201
5.5657,197
5.5677,192
5.5697,190
5.5717,191
5.5717,195
5.5717,199
5.5717,202
5.579,201
5.5817,198
5.5837,194
5.5853,191
5.5853,191
5.5853,195
5.5853,200
5.5853,203
5.5951,203
5.5971,201
5.5971,196
5.5971,192
5.5971,191
5.5971,193
5.5971,198
5.5971,202
5.6112,203
5.6112,202
5.6112,197
5.6112,193
5.6112,191
5.6112,192
5.6112,196
5.6112,201
5.6274,203
5.6274,203
5.6274,199
5.6274,194
5.6274,191
5.6274,191
5.6274,195
5.6274,199
5.6435,203
5.645,203
5.645,201
5.645,196
5.645,192
5.645,191
5.645,193
5.645,198
5.6596,202
5.6596,204
5.6596,202
5.6596,198
5.6596,193
5.6596,191
5.6596,192
5.6596,196
5.6755,201
5.6755,203
5.6755,203
5.6794,199
5.6794,194
5.6858,191
5.6858,191
5.6858,195
5.6916,199
5.6916,203
5.6916,203
5.6916,201
5.6916,196
5.6916,192
5.6916,191
5.6916,193
5.7075,198
5.7075,202
5.7075,204
5.7129,202
5.7149,198
5.7169,193
5.7189,191
5.7209,192
5.7234,196
5.7257,201
5.7277,203
5.7277,203
5.7317,199
5.7317,195
5.7317,191
5.7317,191
5.7395,194
5.7415,199
5.7415,203
5.7415,203
5.7415,201
5.7415,196
5.7415,192
5.7415,191
5.7557,193
5.7575,198
5.7597,202
5.7612,204
5.7612,202
5.7657,198
5.7657,193
5.7657,191
5.7716,192
5.7716,196
5.7716,200
5.7716,203
5.7716,203
5.7716,199
5.7716,195
5.7859,191
5.7877,191
5.7877,195
5.7877,199
5.7877,203
5.7877,203
5.7877,201
5.7877,196
5.7877,192
5.8036,191
5.8036,193
5.8036,198
5.8036,202
5.8036,203
5.8036,202
5.8036,197
5.8036,193
5.8197,191
5.821,191
5.8237,196
5.8237,200
5.8237,203
5.8292,203
5.8317,199
5.8337,194
5.8359,191
5.8379,191
5.8399,194
5.842,199
5.842,202
5.846,203
5.8467,200
5.8494,196
5.8516,192
5.853,191
5.8553,193
5.8575,197
5.8591,202
5.862,203
5.862,202
5.864,198
5.866,193
5.8698,191
5.8698,191
5.8698,196
5.8698,200
5.8771,203
5.8771,203
5.8771,199
5.8771,194
5.8861,191
5.8861,191
5.8861,194
5.8861,199
5.8931,202
5.8939,203
5.8939,201
5.8939,196
5.8939,192
5.8939,191
5.8939,193
5.8939,198
5.9091,202
5.9091,203
5.9133,202
5.9144,198
5.9177,193
5.9195,191
5.9213,192
5.9213,196
5.9251,200
5.9251,203
5.9251,203
5.9251,199
5.9251,195
5.9251,191
5.9251,191
5.9251,194
5.9409,199
5.9409,203
5.9409,203
5.9409,201
5.9409,196
5.9409,192
5.9409,191
5.9409,193
5.9571,198
5.9591,202
5.9591,203
5.9591,202
5.9591,198
5.9591,193
5.9591,191
5.9591,191
5.9732,196
5.9732,200
5.9732,203
5.9732,203
5.9732,199
5.9732,195
5.9732,191
5.9867,191
5.9892,194
5.9892,199
5.9892,203
5.9892,203
5.9967,201
5.9967,196
5.9967,192
5.9967,191
6.0051,193
6.0071,197
6.0071,202
6.0071,203
6.0129,202
6.0157,198
6.0177,193
6.0197,191
6.0212,191
6.0232,196
6.0253,200
6.0273,203
6.0293,203
6.0313,199
6.0313,195
6.0313,191
6.0373,191
6.0392,194
6.0412,199
6.0412,202
6.0438,203
6.0458,201
6.0478,196
6.0498,192
6.0533,191
6.0533,193
6.0533,198
6.0533,202
6.0533,204
6.0629,202
6.0629,198
6.0629,193
6.0691,191
6.0691,192
6.0691,196
6.0691,200
6.0691,203
6.0691,203
6.0691,199
6.0691,195
6.085,191
6.0876,191
6.0891,194
6.0911,199
6.0931,202
6.0949,203
6.0971,201
6.0991,196
6.1011,192
6.1031,191
6.1051,193
6.1071,197
6.1091,201
6.1111,204
6.1111,202
6.1151,198
6.1171,193
6.1171,191
6.1171,191
6.1171,196
6.1171,200
6.1171,203
6.1171,203
6.1171,199
6.1331,195
6.1351,191
6.1371,191
6.1391,194
6.1414,199
6.1437,202
6.145,203
6.1471,201
6.1494,196
6.1517,192
6.1517,191
6.1517,193
6.1517,197
6.1517,201
6.1517,204
6.1517,202
6.1655,198
6.1655,193
6.1655,191
6.1655,191
6.1655,196
6.1655,200
6.1655,203
6.1655,203
6.1814,199
6.1814,195
6.1814,191
6.1876,191
6.1876,194
6.1876,199
6.1876,203
6.1876,203
6.1973,201
6.1973,196
6.1973,192
6.1973,191
6.1973,193
6.1973,197
6.1973,202
6.1973,203
6.2133,202
6.2157,198
6.2177,194
6.2197,191
6.2217,191
6.2237,196
6.2257,200
6.2277,203
6.2294,203
6.2317,199
6.2337,195
6.2357,191
6.2377,191
6.2397,195
6.2397,199
6.2397,203
6.2454,204
6.2454,202
6.2454,197
6.2454,193
6.2454,192
6.2454,193
6.2454,197
6.2454,201
6.2616,203
6.2616,201
6.2616,197
6.2616,192
6.2616,190
6.2616,191
6.2616,194
6.2616,199
6.2775,202
6.2775,202
6.2796,199
6.2796,195
6.2796,191
6.2879,191
6.2879,195
6.2879,199
6.2936,203
6.2936,204
6.2936,201
6.2936,197
6.2936,192
6.2936,191
6.2936,193
6.2936,197
6.3096,201
6.3096,203
6.3096,202
6.3096,198
6.3096,193
6.3096,191
6.3096,191
6.3096,196
6.3256,200
6.3256,203
6.3276,203
6.3296,199
6.3296,195
6.3296,191
6.3296,191
6.3296,194
6.3416,199
6.3416,202
6.3416,203
6.3416,201
6.3504,197
6.351,192
6.351,191
6.351,193
6.3575,197
6.3594,201
6.3612,204
6.3629,202
6.3657,198
6.3677,193
6.3697,191
6.3717,192
6.3737,196
6.3757,200
6.3777,203
6.379,203
6.379,200
6.379,195
6.379,191
6.3879,191
6.3897,194
6.3897,199
6.3897,202
6.3897,203
6.3897,201
6.3897,197
6.3897,192
6.3897,191
6.4057,193
6.4057,197
6.4057,201
6.4057,203
6.4057,202
6.4057,198
6.4057,193
6.4057,191
6.4217,191
6.4217,196
6.4217,200
6.4217,203
6.4217,203
6.4217,200
6.4217,195
6.4217,191
6.4377,191
6.4377,194
6.4377,199
6.4377,202
6.4377,203
6.4377,201
6.4377,197
6.4377,192
6.4536,191
6.4536,193
6.4536,197
6.4536,201
6.4536,203
6.4536,202
6.4536,198
6.4536,194
6.4697,191
6.4717,192
6.4732,196
6.4757,200
6.4773,203
6.4773,203
6.4773,200
6.4773,195
6.4857,191
6.4872,191
6.4902,194
6.4917,199
6.4917,202
6.4917,203
6.4917,201
6.4917,197
6.5018,193
6.5018,191
6.5018,192
6.5018,197
6.5018,201
6.5018,203
6.5018,202
6.5018,198
6.5177,193
6.5177,191
6.5215,191
6.5239,195
6.5239,199
6.5239,203
6.5239,202
6.5239,199
6.5337,195
6.5337,191
6.5337,191
6.5337,194
6.5337,198
6.5337,202
6.5337,203
6.5337,201
6.5498,196
6.5498,192
6.5498,190
6.5498,192
6.5498,197
6.5498,201
6.5498,203
6.5498,202
6.5657,198
6.5657,193
6.5657,191
6.5657,191
6.5657,195
6.5657,200
6.5657,203
6.5657,203
6.5816,199
6.5837,195
6.5837,191
6.5837,191
6.5899,194
6.5899,198
6.5899,202
6.5899,203
6.5975,201
6.5991,196
6.6017,192
6.6037,191
6.6037,192
6.6037,197
6.6037,201
6.6037,203
6.6133,202
6.6157,198
6.6177,194
6.6197,191
6.6217,191
6.6237,195
6.6257,200
6.6277,203
6.6292,203
6.6292,200
6.6292,195
6.6292,191
6.6292,191
6.6292,194
6.6292,199
6.6292,202
6.645,203
6.6474,201
6.6499,197
6.6517,192
6.6517,191
6.6517,193
6.6517,197
6.6517,201
6.6609,203
6.663,202
6.6657,198
6.6657,194
6.6657,191
6.6657,191
6.6657,195
6.6657,200
6.677,203
6.677,203
6.677,200
6.677,195
6.677,191
6.677,191
6.677,194
6.6904,198
6.6931,202
6.6931,203
6.6931,201
6.6931,197
6.6931,192
6.6931,191
6.6931,193
6.6931,197
6.709,201
6.7112,203
6.7112,202
6.7112,198
6.7112,194
6.7112,191
6.7112,191
6.7112,195
6.725,200
6.7279,203
6.7279,203
6.7317,199
6.7337,195
6.7357,191
6.7357,191
6.7357,194
6.741,198
6.743,202
6.743,203
6.743,201
6.743,197
6.743,192
6.743,191
6.743,192
6.7571,197
6.7571,201
6.7571,204
6.7571,202
6.7571,199
6.7571,194
6.7571,191
6.7571,191
6.773,195
6.7751,200
6.7777,203
6.7777,203
6.7817,200
6.7837,195
6.7837,191
6.7837,191
6.7891,194
6.7917,199
6.7917,202
6.7917,203
6.7917,201
6.7917,197
6.7917,193
6.7917,191
6.8052,192
6.8052,197
6.8052,201
6.8052,203
6.8052,202
6.8052,198
6.8052,194
6.8052,191
6.821,191
6.8224,195
6.8224,200
6.8224,203
6.8224,203
6.8224,200
6.8224,195
6.8224,192
6.8371,191
6.8399,194
6.8419,198
6.8439,202
6.8451,203
6.8451,201
6.8451,197
6.8451,193
6.853,191
6.853,192
6.853,197
6.853,201
6.853,204
6.853,202
6.853,198
6.853,194
6.869,191
6.869,191
6.869,195
6.869,200
6.869,203
6.8794,203
6.8794,200
6.8794,195
6.8851,191
6.8874,191
6.8874,194
6.8917,198
6.8917,202
6.8917,203
6.8968,201
6.8997,197
6.9017,193
6.9037,191
6.9057,192
6.9075,197
6.9094,201
6.9112,203
6.9131,202
6.9131,198
6.9131,194
6.9131,191
6.9217,191
6.9217,195
6.9217,200
6.9217,203
6.9217,203
6.9217,200
6.9217,195
6.9217,191
6.9377,191
6.9377,194
6.9398,198
6.9418,202
6.9438,203
6.9438,202
6.9438,197
6.9438,193
6.9534,191
6.9534,192
6.9534,197
6.9534,202
6.9534,204
6.9534,203
6.9534,199
6.9534,195
6.9695,192
6.9711,192
6.9737,196
6.9757,200
6.9777,203
6.9794,202
6.9817,199
6.9837,194
6.9857,191
6.9877,190
6.9897,193
6.9912,197
6.9917,201
6.9917,202
6.9917,200
6.9917,196
6.9917,192
7.0018,191
7.0018,193
7.0018,197
7.0018,202
7.0018,204
7.0018,203
7.0018,199
7.0177,194
7.0177,191
7.0177,191
7.0177,195
7.0177,200
7.0177,203
7.0294,203
7.0294,200
7.0337,195
7.0357,192
7.0357,191
7.0357,194
7.0357,198
7.0357,202
7.0357,203
7.0357,201
7.0497,197
7.0497,192
7.0497,191
7.0539,192
7.0539,197
7.0539,201
7.0539,203
7.0539,203
7.0656,198
7.0667,194
7.0667,191
7.0667,192
7.0667,195
7.0667,200
7.0667,203
7.0794,203
7.0816,200
7.0816,195
7.0816,192
7.0816,191
7.0816,193
7.0816,198
7.092,202
7.092,203
7.0975,201
7.0991,197
7.1011,193
7.1031,191
7.1051,192
7.1051,196
7.1051,201
7.1051,204
7.1133,203
7.1133,199
7.1133,194
7.1133,191
7.1133,191
7.1133,195
7.1133,200
7.1133,203
7.1293,203
7.1293,200
7.1293,195
7.1293,192
7.1293,191
7.1293,194
7.1293,198
7.1293,202
7.1453,203
7.1453,201
7.1453,197
7.1453,193
7.1453,191
7.1453,192
7.1453,197
7.1453,201
7.1612,203
7.1612,202
7.1612,199
7.1612,194
7.1612,191
7.1612,191
7.1612,195
7.1612,200
7.1771,203
7.1771,203
7.1771,200
7.1771,196
7.1771,192
7.1771,191
7.1771,194
7.1771,198
7.1925,202
7.1925,203
7.1925,202
7.1925,197
7.1925,193
7.1925,191
7.1925,192
7.1925,197
7.2086,201
7.2086,203
7.2086,202
7.2086,199
7.2174,194
7.2193,191
7.2212,191
7.2231,195
7.2251,200
7.227,203
7.2286,203
7.2286,200
7.2286,195
7.2286,191
7.2286,191
7.2286,193
7.241,198
7.241,202
7.241,203
7.241,201
7.241,197
7.241,192
7.241,190
7.241,192
7.2572,196
7.2572,201
7.2572,203
7.2572,202
7.2572,198
7.2572,194
7.2572,191
7.2572,191
7.2732,195
7.2732,199
7.2732,203
7.2732,203
7.2732,200
7.2732,195
7.2732,192
7.2732,191
7.2892,193
7.2892,198
7.2931,202
7.2931,203
7.2931,202
7.2931,197
7.2931,193
7.2931,191
7.3055,192
7.3055,196
7.3055,201
7.3055,203
7.3055,203
7.3055,199
7.3055,194
7.3055,191
7.3217,191
7.3217,195
7.3217,199
7.3217,203
7.3217,203
7.3217,200
7.3217,195
7.3217,192
7.3379,191
7.3391,193
7.3391,198
7.3391,202
7.3391,203
7.3391,202
7.3391,197
7.3514,193
7.3538,191
7.3538,192
7.3538,196
7.3538,201
7.3538,203
7.3538,203
7.3538,199
7.3538,194
7.3538,191
7.3701,191
7.3701,195
7.3701,200
7.3701,203
7.3701,203
7.3701,200
7.3701,196
7.3701,192
7.3861,191
7.3861,193
7.3861,198
7.3934,202
7.3934,203
7.3934,202
7.3934,197
7.4021,193
7.4021,191
7.4041,192
7.4041,197
7.4041,201
7.4041,204
7.4041,203
7.4041,199
7.418,194
7.4193,191
7.4198,191
7.4198,195
7.4198,199
7.4198,203
7.4198,203
7.4316,200
7.4336,196
7.4356,192
7.4376,191
7.4396,193
7.4408,198
7.4408,202
7.4408,203
7.4466,201
7.4496,197
7.4496,193
7.4496,191
7.4496,192
7.4496,196
7.4496,201
7.4618,203
7.4618,203
7.4618,199
7.4618,194
7.4685,191
7.4705,191
7.4705,195
7.4705,199
7.4777,203
7.4777,203
7.4777,200
7.4777,196
7.4777,192
7.4777,191
7.4777,193
7.4777,198
7.4935,202
7.4935,203
7.4935,201
7.4935,197
7.4935,193
7.4935,191
7.4935,192
7.4935,196
7.5097,201
7.5097,203
7.5097,203
7.5097,199
7.5097,194
7.5097,191
7.5097,191
7.5097,195
7.5257,199
7.5257,203
7.5257,203
7.5257,200
7.5257,196
7.5257,192
7.5257,191
7.5257,193
7.5414,198
7.5414,202
7.5414,203
7.5414,202
7.5414,197
7.5414,193
7.5414,191
7.5414,192
7.5575,196
7.5597,201
7.5617,203
7.5617,203
7.5657,199
7.5677,194
7.5697,191
7.5697,191
7.5736,195
7.5755,199
7.5772,203
7.5795,203
7.5812,200
7.5828,196
7.5846,192
7.5865,191
7.5897,193
7.5897,198
7.594,202
7.594,203
7.5968,202
7.5968,197
7.5968,193
7.5968,191
7.6055,192
7.6055,196
7.6055,201
7.6055,203
7.6055,203
7.6055,199
7.6055,194
7.6055,191
7.6213,191
7.6232,195
7.6252,199
7.6272,203
7.6272,203
7.6272,200
7.6272,195
7.6272,192
7.6373,191
7.6373,193
7.6373,198
7.6373,202
7.6373,203
7.6373,202
7.6373,197
7.6373,193
7.6532,191
7.6532,192
7.6532,196
7.6532,201
7.6532,203
7.6633,203
7.6633,199
7.6633,194
7.6692,191
7.6692,191
7.6692,195
7.6692,199
7.6692,203
7.6692,203
7.6692,201
7.6692,196
7.6852,192
7.6872,191
7.6892,194
7.6912,199
7.6932,203
7.6955,205
7.6955,203
7.6955,198
7.7014,193
7.7021,191
7.7021,192
7.7021,195
7.7021,200
7.7021,202
7.7021,202
7.7021,198
7.717,193
7.7197,189
7.7217,190
7.7237,193
7.7257,198
7.7277,202
7.7277,203
7.7277,201
7.733,196
7.7348,192
7.7367,191
7.7367,194
7.7367,198
7.7367,202
7.7367,204
7.7367,202
7.7491,197
7.7512,193
7.7512,191
7.7512,192
7.7512,196
7.7512,201
7.7512,203
7.7512,203
7.7652,199
7.7652,194
7.7652,191
7.7652,191
7.7652,195
7.7652,199
7.7652,203
7.7652,203
7.781,201
7.7831,196
7.7831,192
7.7831,191
7.7831,193
7.7831,198
7.7831,202
7.7954,204
7.7971,202
7.7971,198
7.7971,193
7.7971,191
7.7971,192
7.7971,196
7.7971,201
7.7971,203
7.813,203
7.813,199
7.813,194
7.813,191
7.813,191
7.813,195
7.813,199
7.813,203
7.8291,203
7.8312,200
7.8332,196
7.8351,192
7.8374,191
7.8386,193
7.842,198
7.842,202
7.8451,203
7.8451,202
7.8451,197
7.8451,193
7.8451,191
7.8451,192
7.8451,196
7.8451,201
7.8612,203
7.8632,203
7.8656,199
7.8673,195
7.8696,191
7.8716,191
7.8732,195
7.8752,199
7.8774,203
7.8793,203
7.8816,201
7.8832,196
7.8852,192
7.8872,191
7.8892,193
7.8892,198
7.8939,202
7.8954,204
7.8954,202
7.8954,198
7.8954,193
7.8954,191
7.8954,192
7.8954,196
7.9097,201
7.9111,204
7.9111,203
7.9111,199
7.9111,195
7.9111,191
7.9111,191
7.9111,195
7.9271,199
7.9271,203
7.9271,203
7.9271,200
7.9271,196
7.9271,192
7.9271,191
7.9271,193
7.9411,198
7.9433,202
7.9459,203
7.9472,202
7.9492,197
7.9512,193
7.9532,191
7.9552,192
7.9574,196
7.9595,200
7.9635,203
7.9635,203
7.9655,199
7.967,194
7.967,191
7.967,191
7.967,194
7.967,199
7.967,202
7.967,203
7.9815,200
7.9832,196
7.9851,192
7.9851,191
7.9851,193
7.9851,197
7.9851,202
7.9851,203
7.9958,202
7.9975,197
7.9975,193
7.9975,191
7.9975,192
7.9975,196
7.9975,200
7.9975,203
8.0132,202
8.0132,199
8.0132,194
8.0132,191
8.0132,191
8.0132,194
8.0132,199
8.0132,202
8.0291,203
8.0312,200
8.0312,196
8.0312,192
8.0312,191
8.0312,193
8.0312,198
8.0312,202
8.0451,204
8.0451,202
8.0451,198
8.0451,193
8.0451,191
8.0451,192
8.0451,196
8.0451,201
8.0614,203
8.0614,203
8.0614,199
8.0614,194
8.0614,191
8.0614,191
8.0614,194
8.0614,199
8.0772,203
8.0772,203
8.0772,201
8.0772,196
8.0772,192
8.0772,191
8.0772,193
8.0772,198
8.0931,201
8.0951,203
8.0972,202
8.0997,197
8.1017,193
8.1037,191
8.1057,192
8.1074,196
8.1097,201
8.1117,203
8.1117,203
8.1157,199
8.1177,194
8.1197,191
8.1217,191
8.1237,194
8.1257,199
8.1277,203
8.1277,203
8.1277,201
8.1277,196
8.1277,192
8.1277,191
8.1277,193
8.1277,198
8.1418,202
8.1418,203
8.1418,202
8.1418,197
8.1418,193
8.1418,191
8.1418,192
8.1579,196
8.1597,201
8.1597,203
8.1597,203
8.1597,199
8.1597,195
8.1597,191
8.1597,191
8.1738,194
8.1753,199
8.1753,203
8.1753,203
8.1753,201
8.1753,196
8.1753,192
8.1753,191
8.1899,193
8.1913,197
8.1937,201
8.1949,203
8.1964,202
8.1964,198
8.1964,193
8.1964,191
8.2059,192
8.2059,196
8.2059,200
8.2059,203
8.2059,203
8.2059,199
8.2059,195
8.2059,191
8.2218,191
8.2218,195
8.2257,199
8.2277,203
8.2277,203
8.2277,201
8.2277,196
8.2277,192
8.2379,191
8.2394,193
8.2419,197
8.2439,202
8.2439,203
8.2439,202
8.2439,198
8.2439,193
8.2541,191
8.2541,191
8.2541,196
8.2541,200
8.2541,203
8.2541,203
8.2541,199
8.2541,195
8.2701,191
8.2701,191
8.2701,194
8.2701,199
8.2701,203
8.2701,203
8.2701,201
8.2701,196
8.2861,192
8.2861,191
8.2901,193
8.2901,198
8.2901,202
8.2901,203
8.2967,202
8.2967,198
8.3021,193
8.3021,191
8.3021,192
8.3021,196
8.3021,201
8.3021,203
8.3021,203
8.3021,199
8.3182,195
8.3197,191
8.3217,191
8.3237,194
8.3257,199
8.3282,202
8.3282,203
8.3317,200
8.3337,196
8.3337,192
8.3337,191
8.3337,193
8.3337,197
8.3442,201
8.3442,203
8.3442,202
8.3497,198
8.3521,193
8.353,191
8.353,191
8.353,196
8.353,200
8.353,203
8.353,203
8.3657,199
8.3677,195
8.3677,191
8.3677,191
8.3677,194
8.3677,199
8.3677,202
8.3677,203
8.3817,201
8.3833,196
8.3857,192
8.3857,191
8.3857,193
8.3857,198
8.3857,202
8.3857,204
8.3972,202
8.3997,198
8.3997,193
8.3997,191
8.3997,192
8.3997,196
8.3997,201
8.3997,204
8.413,204
8.413,201
8.413,196
8.413,192
8.413,192
8.413,195
8.413,199
8.413,202
8.429,203
8.429,200
8.429,195
8.429,191
8.429,190
8.429,191
8.429,196
8.429,200
8.445,202
8.4463,201
8.4484,197
8.4484,193
8.4484,191
8.4484,192
8.4484,197
8.4484,201
8.461,204
8.461,203
8.461,200
8.461,195
8.461,191
8.461,191
8.461,194
8.461,199
8.4783,202
8.4783,203
8.4783,201
8.4783,196
8.4856,192
8.4877,191
8.4897,193
8.4913,197
8.4937,202
8.4937,203
8.4977,202
8.4977,198
8.5021,193
8.5035,191
8.5057,191
8.5074,196
8.5097,200
8.5097,203
8.5124,203
8.5157,199
8.5177,195
8.5177,191
8.5177,191
8.5177,194
8.5261,199
8.5261,202
8.5261,203
8.5261,201
8.5261,196
8.5261,192
8.5261,191
8.5261,193
8.5418,197
8.5418,202
8.5418,203
8.5418,202
8.5418,198
8.5418,193
8.5418,191
8.5418,191
8.5577,196
8.5577,200
8.5577,203
8.5634,203
8.5634,199
8.5634,195
8.5634,191
8.5634,191
8.5735,194
8.5735,199
8.5735,203
8.5735,203
8.5735,201
8.5735,196
8.5735,192
8.5735,191
8.5894,193
8.5894,197
8.5937,202
8.595,203
8.5972,202
8.6002,198
8.6013,193
8.6037,191
8.6056,192
8.6056,196
8.6056,200
8.6056,203
8.6056,203
8.6056,199
8.6056,195
8.6056,191
8.6217,191
8.6217,194
8.6217,199
8.6217,202
8.6217,203
8.6217,201
8.6217,196
8.6217,192
8.6377,191
8.6393,193
8.6417,198
8.6437,202
8.645,203
8.6472,202
8.6497,198
8.6497,193
8.6532,191
8.6538,192
8.6538,196
8.6538,200
8.6538,203
8.6538,203
8.6538,200
8.6538,195
8.669,191
8.6717,191
8.6717,194
8.6717,199
8.6717,202
8.6717,203
8.6717,201
8.6717,196
8.6851,192
8.6851,191
8.6851,192
8.6851,197
8.6851,201
8.6851,203
8.6851,202
8.6999,198
8.7011,193
8.7011,190
8.7011,191
8.7011,195
8.7011,200
8.7011,203
8.7011,203
8.7011,199
8.7171,195
8.7183,191
8.721,191
8.723,194
8.7251,199
8.7273,202
8.7293,203
8.7313,201
8.7332,196
8.7356,192
8.7356,191
8.7356,193
8.7356,197
8.7356,202
8.7356,203
8.7356,202
8.7493,198
8.7493,193
8.7493,191
8.7493,191
8.7493,196
8.7493,200
8.7493,203
8.7493,203
8.7652,200
8.7672,195
8.7672,191
8.7672,191
8.7672,194
8.7672,199
8.7672,203
8.7672,203
8.7811,201
8.7831,196
8.7856,192
8.7856,191
8.7856,192
8.7856,197
8.7856,201
8.7856,203
8.7971,202
8.7971,198
8.8004,193
8.8004,191
8.8004,191
8.8004,195
8.8004,200
8.8004,203
8.8131,203
8.8131,199
8.8131,195
8.8131,191
8.8131,191
8.8131,194
8.8131,199
8.8131,202
8.829,203
8.8317,201
8.8337,196
8.8337,192
8.8337,191
8.8337,192
8.8337,197
8.8337,201
8.8471,203
8.8471,202
8.8471,198
8.8471,193
8.8471,191
8.8471,191
8.8471,195
8.8471,200
8.861,203
8.861,203
8.861,200
8.861,195
8.861,191
8.861,191
8.861,194
8.861,199
8.8773,202
8.8773,203
8.8773,201
8.8773,196
8.8773,192
8.8773,191
8.8773,193
8.8773,197
8.8931,201
8.8951,203
8.8972,202
8.8997,198
8.9017,194
8.9033,191
8.9057,191
8.9074,195
8.9096,200
8.9116,203
8.9116,203
8.9156,200
8.9156,195
8.9156,191
8.9221,191
8.9232,194
8.9256,199
8.9256,202
8.9256,203
8.9256,201
8.9256,196
8.9256,192
8.9256,191
8.9256,193
8.9416,197
8.9416,202
8.9416,203
8.9416,202
8.9416,198
8.9416,193
8.9416,191
8.9416,191
8.9574,195
8.9597,200
8.9597,203
8.9597,203
8.9597,200
8.9597,195
8.9597,191
8.9597,191
8.9736,194
8.9759,199
8.9777,202
8.9777,203
8.9817,201
8.9837,197
8.985,192
8.9877,191
8.9897,193
8.9897,197
8.9897,202
8.9897,203
8.9897,202
8.9897,198
9.0019,194
9.0019,191
9.0053,192
9.0053,196
9.0053,200
9.0053,203
9.0053,203
9.0157,200
9.0177,195
9.0197,191
9.0217,191
9.0237,194
9.0257,199
9.0277,202
9.0293,203
9.0312,201
9.0337,197
9.0357,192
9.0377,191
9.0397,192
9.0417,197
9.0417,201
9.0417,203
9.0417,202
9.0417,198
9.0417,194
9.0536,191
9.0536,191
9.0536,195
9.0536,200
9.0536,203
9.0536,203
9.0536,200
9.0536,195
9.0695,191
9.0695,191
9.0695,194
9.0695,199
9.0695,202
9.0695,203
9.0695,201
9.0695,197
9.0856,192
9.0856,191
9.0897,192
9.0917,197
9.0937,201
9.095,203
9.0972,202
9.0997,198
9.1022,194
9.1033,191
9.1057,191
9.1074,196
9.1074,200
9.1074,204
9.1074,204
9.1074,201
9.1178,196
9.1178,193
9.1178,192
9.1178,195
9.1178,200
9.1178,203
9.1178,204
9.1178,201
9.1337,196
9.1357,191
9.1377,190
9.1397,191
9.1417,196
9.1437,200
9.1437,202
9.1437,201
9.1497,197
9.1497,192
9.1497,190
9.1497,191
9.1497,195
9.1497,200
9.1497,204
9.1497,204
9.1656,200
9.1656,196
9.1656,192
9.1656,191
9.1656,194
9.1656,199
9.1656,202
9.1656,203
9.1817,201
9.1817,197
9.1817,192
9.1817,191
9.1817,193
9.1817,197
9.1817,201
9.1817,203
9.1974,202
9.1974,198
9.1974,194
9.2024,191
9.2024,191
9.2024,195
9.2024,200
9.2024,203
9.2133,203
9.2157,200
9.2177,195
9.2197,192
9.2197,191
9.2197,194
9.2197,199
9.2197,202
9.2293,203
9.2317,201
9.2337,197
9.2357,192
9.2377,191
9.2397,192
9.2417,197
9.2437,201
9.2454,203
9.2454,202
9.2454,198
9.2454,194
9.2454,191
9.2454,191
9.2454,195
9.2454,200
9.2617,203
9.2617,203
9.2659,200
9.2678,195
9.2699,192
9.2719,191
9.2719,194
9.2719,198
9.2779,202
9.2779,203
9.2779,201
9.2779,197
9.2779,193
9.2779,191
9.2779,192
9.2779,197
9.294,201
9.2957,203
9.2972,203
9.2984,198
9.3007,194
9.3031,191
9.305,191
9.305,195
9.3097,200
9.3097,203
9.3097,203
9.3097,200
9.3097,195
9.3097,192
9.3097,191
9.3097,194
9.3256,198
9.3266,202
9.3266,203
9.3266,202
9.3266,197
9.3266,193
9.3266,191
9.3266,192
9.3416,197
9.3416,201
9.3416,204
9.3416,203
9.3416,198
9.3416,194
9.3535,191
9.3544,192
9.3577,195
9.3597,200
9.3611,203
9.3611,203
9.3652,200
9.3672,195
9.369,192
9.3712,191
9.3732,194
9.3732,198
9.3732,202
9.3795,203
9.3812,201
9.3832,197
9.3832,192
9.3832,191
9.3906,192
9.3912,196
9.3912,201
9.3912,203
9.3912,202
9.3912,198
9.3912,193
9.4031,190
9.4053,191
9.4072,195
9.4096,199
9.4117,202
9.4117,203
9.4117,199
9.4117,195
9.4117,191
9.4218,191
9.4224,193
9.4224,198
9.4224,202
9.4292,203
9.4292,201
9.4292,197
9.4292,192
9.4371,190
9.4397,192
9.4397,197
9.4397,201
9.4397,203
9.4397,202
9.4397,198
9.4397,194
9.453,190
9.453,191
9.453,195
9.453,200
9.453,203
9.453,203
9.453,200
9.453,195
9.469,191
9.4717,191
9.4717,194
9.4717,198
9.4717,202
9.4717,203
9.4717,201
9.4717,197
9.485,192
9.485,191
9.485,192
9.485,197
9.485,201
9.485,203
9.485,202
9.485,199
9.501,194
9.5042,191
9.5057,191
9.5074,195
9.5074,200
9.5074,203
9.5074,203
9.5074,200
9.5169,195
9.5199,192
9.5217,191
9.5217,194
9.5217,198
9.5217,202
9.5217,203
9.5217,201
9.5329,197
9.5348,193
9.5348,191
9.5348,192
9.5348,197
9.5348,201
9.5463,203
9.5463,202
9.5463,199
9.5463,194
9.5463,191
9.5547,191
9.5547,195
9.5599,200
9.563,203
9.563,203
9.563,200
9.563,195
9.563,191
9.563,191
9.563,194
9.563,198
9.563,202
9.5791,203
9.5791,202
9.5791,197
9.5791,193
9.5791,191
9.5791,192
9.5791,197
9.5791,201
9.5952,204
9.5952,202
9.5952,199
9.5952,194
9.6039,191
9.6039,191
9.6039,195
9.6039,200
9.6114,203
9.6114,203
9.6157,200
9.6177,195
9.6192,191
9.6192,191
9.6192,194
9.6192,198
9.6277,202
9.6277,204
9.6316,202
9.6337,197
9.6357,193
9.6377,191
9.6397,192
9.6397,196
9.6436,201
9.645,203
9.6471,202
9.6497,198
9.6517,194
9.6517,191
9.6517,191
9.6517,195
9.6596,200
9.6596,203
9.6596,203
9.6596,200
9.6596,195
9.6596,192
9.6596,191
9.6596,194
9.6757,198
9.6757,202
9.6757,204
9.6757,201
9.6757,197
9.6757,193
9.6757,191
9.6757,192
9.6915,197
9.6915,201
9.6915,203
9.6915,203
9.6915,199
9.6915,194
9.6915,191
9.7044,191
9.7074,195
9.7074,199
9.7074,203
9.7074,203
9.7074,200
9.7074,195
9.7074,192
9.7074,191
9.7235,194
9.7235,198
9.7235,202
9.7235,203
9.7235,201
9.7235,197
9.7235,193
9.7235,190
9.7395,192
9.7412,196
9.7437,201
9.745,203
9.745,203
9.745,198
9.745,194
9.745,191
9.7556,191
9.7574,195
9.7597,199
9.7617,203
9.7617,203
9.7617,200
9.7617,195
9.7617,192
9.7715,191
9.7737,193
9.7757,198
9.7757,202
9.7757,203
9.7757,201
9.7757,197
9.7757,193
9.7875,191
9.7875,192
9.7875,197
9.7875,201
9.7875,203
9.7875,203
9.7875,199
9.7875,194
9.8036,191
9.805,191
9.8074,195
9.8097,200
9.8097,203
9.8097,203
9.8097,200
9.8097,195
9.8197,192
9.8217,191
9.8217,194
9.8217,199
9.8217,203
9.8217,204
9.8217,203
9.8217,198
9.8356,194
9.8356,192
9.8356,193
9.8356,197
9.8356,201
9.8356,203
9.8356,201
9.8356,197
9.8515,193
9.8515,190
9.8515,190
9.8515,194
9.8515,198
9.8515,202
9.8634,202
9.8634,199
9.8677,195
9.8691,192
9.8711,191
9.8711,194
9.8711,199
9.8711,203
9.8711,204
9.8711,202
9.8836,197
9.8854,193
9.8875,191
9.8891,192
9.8913,197
9.8932,201
9.895,203
9.8979,203
9.8991,199
9.9011,194
9.9031,191
9.9057,191
9.9057,195
9.9057,199
9.9057,203
9.9057,203
9.9148,200
9.9148,196
9.9148,192
9.9148,191
9.9148,193
9.9148,198
9.9148,202
9.9148,203
9.9311,201
9.9311,197
9.9311,193
9.9311,191
9.9311,192
9.9311,196
9.9311,201
9.9311,203
9.947,203
9.947,199
9.947,194
9.947,191
9.947,191
9.947,195
9.947,200
9.947,203
9.963,203
9.9646,200
9.9676,196
9.9695,192
9.9714,191
9.9734,193
9.9752,198
9.9771,202
9.979,203
9.979,202
9.979,197
9.979,193
9.979,191
9.9896,192
9.9896,197
9.9931,201
9.995,203
9.9974,203
9.9992,199
10.0012,194
10.0012,191
10.0057,191
10.0057,195
10.0057,199
10.0132,203
10.0132,203
10.0132,200
10.0132,196
10.0132,192
10.0132,191
10.0132,193
10.0132,198
10.0271,202
10.0292,204
10.0312,202
10.0332,197
10.0352,193
10.0372,191
10.0392,192
10.0412,197
10.0431,201
10.0431,203
10.0431,203
10.0431,199
10.0431,194
10.0431,191
10.0431,191
10.0431,195
10.0592,200
10.0617,203
10.0617,203
10.0652,201
10.0672,196
10.0692,192
10.0712,191
10.0724,193
10.0755,198
10.0789,202
10.0789,203
10.0807,202
10.0807,197
10.0807,193
10.0807,191
10.0807,192
10.0923,196
10.0923,201
10.0966,203
10.0966,203
10.0995,199
10.1017,194
10.1017,191
10.1057,191
10.1073,195
10.1097,199
10.1125,203
10.1125,203
10.1151,200
10.1177,195
10.1193,191
10.1217,191
10.1237,193
10.1257,198
10.1277,202
10.1277,203
10.1317,201
10.1337,197
10.1337,192
10.1337,190
10.1396,192
10.1396,196
10.1396,201
10.1396,203
10.1396,202
10.1396,199
10.1396,194
10.1396,191
10.1557,191
10.1574,195
10.1597,199
10.1597,203
10.1597,203
10.1597,200
10.1597,195
10.1597,192
10.1718,191
10.1732,193
10.1757,198
10.1757,202
10.1757,203
10.1757,201
10.1757,197
10.1757,193
10.1877,191
10.1897,192
10.1917,196
10.1937,201
10.195,203
10.195,203
10.195,199
10.195,194
10.2035,191
10.2035,191
10.2065,195
10.2065,199
10.2065,203
10.2065,203
10.2065,200
10.2065,196
10.2195,192
10.2195,191
10.2195,193
10.2195,198
10.2195,202
10.2195,203
10.2195,202
10.2195,197
10.2356,193
10.2372,191
10.2402,192
10.2419,196
10.2437,201
10.2453,203
10.2471,203
10.2471,199
10.2515,194
10.2515,191
10.2515,191
10.2515,195
10.2515,199
10.2515,203
10.2515,203
10.2515,200
10.2676,196
10.2692,192
10.2712,191
10.2732,193
10.2751,198
10.2751,202
10.2751,203
10.2751,202
10.2833,197
10.2833,193
10.2833,191
10.2833,192
10.2833,196
10.2833,201
10.2833,203
10.2833,203
10.2992,199
10.3012,194
10.3012,191
10.3012,191
10.3068,195
10.3068,199
10.3068,203
10.3068,203
10.3151,200
10.3151,196
10.3151,192
10.3151,191
10.3151,193
10.3151,198
10.3151,202
10.3151,203
10.3312,202
10.3333,197
10.3333,193
10.3333,191
10.3333,192
10.3333,196
10.3333,201
10.3333,203
10.3472,203
10.3472,199
10.3472,194
10.3535,191
10.3545,191
10.3545,195
10.3545,199
10.3545,203
10.3629,203
10.3643,200
10.3676,196
10.3676,192
10.3676,191
10.3676,193
10.3676,198
10.3676,202
10.3791,203
10.3817,202
10.3837,197
10.3857,193
10.3857,191
10.3857,192
10.3857,196
10.3857,201
10.3951,203
10.3972,202
10.3997,199
10.3997,194
10.3997,191
10.3997,191
10.4072,195
10.4072,199
10.4111,203
10.4111,203
10.4111,201
10.4111,196
10.4111,192
10.4111,191
10.4111,193
10.4111,198
10.4271,202
10.4291,203
10.4311,202
10.4337,197
10.4357,193
10.4377,191
10.4397,192
10.4417,196
10.4437,201
10.445,203
10.445,203
10.445,199
10.445,194
10.445,191
10.445,191
10.445,195
10.4596,199
10.4608,203
10.4628,203
10.4628,201
10.4628,196
10.4628,192
10.4628,191
10.4628,193
10.4757,198
10.4757,202
10.479,203
10.4809,202
10.4827,198
10.4843,193
10.4875,191
10.4875,192
10.4914,196
10.4914,201
10.4914,203
10.4914,203
10.4914,199
10.4914,194
10.4914,191
10.4914,191
10.5073,194
10.5091,199
10.5091,203
10.5132,203
10.5132,200
10.5132,196
10.5132,192
10.5132,191
10.5232,193
10.5252,198
10.5252,202
10.5252,203
10.5252,202
10.5252,197
10.5252,193
10.5252,191
10.5392,192
10.5392,196
10.5392,201
10.5392,203
10.5392,203
10.5392,199
10.5392,194
10.5392,191
10.5551,191
10.5571,195
10.5571,199
10.5571,203
10.5571,203
10.5571,201
10.5571,196
10.5571,192
10.5711,191
10.5711,193
10.5711,198
10.5711,202
10.579,204
10.579,202
10.579,198
10.579,193
10.587,191
10.5893,192
10.5893,197
10.5893,201
10.5963,204
10.5963,204
10.5991,200
10.6017,196
10.6037,192
10.6057,192
10.6079,195
10.6097,199
10.6117,202
10.613,202
10.613,199
10.613,195
10.613,191
10.6216,190
10.6237,192
10.6257,196
10.6257,200
10.6257,202
10.6257,201
10.6257,197
10.6257,193
10.6374,191
10.6374,192
10.6374,197
10.6374,201
10.6374,204
10.6374,203
10.6374,199
10.6374,195
10.6535,191
10.6535,191
10.6535,195
10.6535,199
10.6535,203
10.6535,203
10.6535,201
10.6535,196
10.6694,192
10.6694,191
10.6694,193
10.6756,198
10.6756,202
10.6756,203
10.6756,202
10.6756,198
10.6856,193
10.6871,191
10.6871,192
10.6871,196
10.6871,200
10.6871,203
10.6871,203
10.6871,199
10.7014,195
10.7014,191
10.7014,191
10.7014,195
10.7085,199
10.7085,203
10.7085,203
10.7085,201
10.7175,196
10.7175,192
10.7175,191
10.7175,193
10.7175,198
10.7175,202
10.7175,203
10.7175,202
10.7334,198
10.7357,193
10.7357,191
10.7357,192
10.7357,196
10.7357,201
10.7357,203
10.7357,203
10.7495,199
10.7511,194
10.7537,191
10.7537,191
10.7537,194
10.7537,199
10.7537,203
10.7537,203
10.7657,201
10.7677,196
10.7677,192
10.7677,191
10.7677,193
10.7677,198
10.7677,202
10.7677,204
10.7817,202
10.7817,198
10.7817,193
10.7817,191
10.7817,192
10.7817,196
10.7817,200
10.7817,203
10.7976,203
10.7997,199
10.8017,195
10.8037,191
10.8057,191
10.8074,195
10.8087,199
10.8087,203
10.8133,203
10.8133,201
10.8133,196
10.8133,192
10.8133,191
10.8133,193
10.8133,198
10.8133,202
10.8293,204
10.8293,202
10.8293,198
10.8293,193
10.8293,191
10.8293,192
10.8293,196
10.8293,200
10.8453,203
10.8453,203
10.8453,199
10.8453,195
10.8453,191
10.8453,191
10.8453,194
10.8453,199
10.8613,202
10.8633,203
10.8657,200
10.8657,196
10.8657,191
10.8657,190
10.8657,192
10.8657,197
10.8776,201
10.8776,203
10.8796,202
10.8837,197
10.8857,193
10.8857,190
10.8857,191
10.8857,196
10.8936,200
10.895,203
10.8971,203
10.8997,199
10.9017,194
10.9037,191
10.9057,191
10.9074,194
10.9093,199
10.9093,202
10.9131,203
10.9143,200
10.9177,196
10.9196,192
10.9215,191
10.9233,193
10.9252,197
10.9277,201
10.9277,203
10.9314,202
10.9331,197
10.9351,193
10.9372,191
10.9392,191
10.9412,196
10.9432,200
10.9432,203
10.9432,203
10.9432,199
10.9432,194
10.9432,191
10.9432,191
10.9572,194
10.9593,199
10.9593,202
10.9593,203
10.9593,201
10.9593,196
10.9593,192
10.9593,191
10.9733,193
10.9733,198
10.9733,202
10.9733,204
10.9733,202
10.9733,198
10.9733,193
10.9733,191
10.9893,192
10.9912,196
10.9912,200
10.9912,203
10.9967,203
10.9967,199
10.9967,195
10.9967,191
11.0052,191
11.0052,194
11.0094,199
11.0094,203
11.0094,203
11.0094,201
11.0094,196
11.0094,192
11.021,191
11.0232,193
11.0252,197
11.0271,202
11.0283,204
11.0283,202
11.0283,198
11.0283,193
11.0372,191
11.0372,191
11.0372,196
11.0372,200
11.0372,203
11.0372,203
11.0372,199
11.0372,195
11.0532,191
11.0543,191
11.0543,194
11.0543,199
11.0543,202
11.0543,203
11.0543,201
11.0543,196
11.0692,192
11.0717,191
11.0717,193
11.0717,197
11.0717,202
11.0717,203
11.0717,202
11.0717,198
11.0851,193
11.0851,191
11.0851,192
11.0851,196
11.0851,201
11.0851,203
11.0851,203
11.0851,199
11.101,195
11.101,191
11.101,191
11.101,194
11.1097,199
11.1097,203
11.1097,203
11.1097,201
11.1171,196
11.1189,192
11.1201,191
11.1201,193
11.1257,197
11.1257,202
11.1294,203
11.1317,202
11.1337,198
11.1354,193
11.1377,191
11.1391,192
11.1417,196
11.1437,200
11.1437,203
11.147,203
11.147,199
11.147,195
11.147,191
11.147,191
11.147,194
11.147,199
11.147,202
11.1622,203
11.1642,201
11.1642,196
11.1642,192
11.1642,191
11.1642,193
11.1642,197
11.1778,201
11.1778,203
11.1816,202
11.1834,198
11.1857,193
11.1869,191
11.1886,191
11.1903,196
11.1937,200
11.1949,203
11.1949,203
11.1949,199
11.1949,195
11.1949,191
11.1949,191
11.1949,194
11.1949,199
11.2111,202
11.2111,203
11.2111,201
11.2111,196
11.2111,192
11.2111,191
11.2111,193
11.2259,197
11.2259,201
11.2289,204
11.2289,202
11.2289,198
11.2289,193
11.2289,191
11.2289,192
11.2421,196
11.2421,200
11.2449,203
11.2467,203
11.2492,199
11.2511,195
11.2532,191
11.2532,191
11.2578,194
11.2578,199
11.2599,203
11.2599,203
11.2599,201
11.2599,196
11.2599,192
11.2599,191
11.274,193
11.274,197
11.276,201
11.276,203
11.276,202
11.276,198
11.276,193
11.276,191
11.29,192
11.29,196
11.29,200
11.29,203
11.29,203
11.29,199
11.29,195
11.29,191
11.306,191
11.3071,194
11.3071,199
11.3107,203
11.3107,203
11.3107,201
11.3107,196
11.3107,192
11.3107,191
11.3231,192
11.3231,197
11.3231,201
11.3231,203
11.3231,202
11.3231,198
11.3231,193
11.3231,191
11.3383,192
11.3383,196
11.3383,200
11.3383,203
11.3383,203
11.3383,199
11.3383,195
11.3383,191
11.3554,191
11.3572,194
11.3594,199
11.3612,203
11.3628,203
11.3652,201
11.366,196
11.366,192
11.3703,191
11.3703,193
11.3752,197
11.3772,202
11.3781,203
11.3781,202
11.3781,198
11.3781,194
11.3872,191
11.3872,192
11.3872,195
11.3872,200
11.3872,203
11.3872,203
11.3872,200
11.3872,195
11.4037,191
11.4057,191
11.4057,195
11.4057,199
11.4108,203
11.4108,204
11.4108,202
11.4182,197
11.4182,193
11.4182,192
11.4182,194
11.4182,198
11.4182,202
11.4182,203
11.4182,201
11.4342,197
11.4342,192
11.4342,190
11.4397,191
11.4417,195
11.4437,199
11.4437,202
11.4437,202
11.4503,198
11.4513,194
11.4537,191
11.4537,191
11.4537,194
11.4537,199
11.4537,203
11.4537,204
11.4537,201
11.4671,197
11.4691,192
11.4691,191
11.4691,193
11.4691,197
11.4691,201
11.4691,203
11.4691,202
11.4824,198
11.4824,194
11.4824,191
11.4824,192
11.4824,196
11.4824,200
11.4824,203
11.4824,203
11.4984,200
11.5017,195
11.5017,192
11.5017,191
11.5017,194
11.5017,199
11.5112,203
11.5112,203
11.5146,201
11.5146,197
11.5146,193
11.5146,191
11.5146,193
11.5146,197
11.5146,202
11.5146,204
11.5306,202
11.5337,198
11.5357,194
11.5377,191
11.5396,192
11.5417,196
11.5417,200
11.5417,203
11.5464,203
11.5464,200
11.5464,195
11.5464,191
11.5464,191
11.5464,194
11.5464,199
11.5622,203
11.5622,203
11.5622,201
11.5677,197
11.5697,192
11.5697,191
11.5697,193
11.5697,197
11.5781,201
11.5781,204
11.5781,202
11.5781,198
11.5781,194
11.5781,191
11.5781,191
11.5781,196
11.5938,200
11.5938,203
11.5958,203
11.5958,200
11.5958,195
11.5958,191
11.5958,191
11.5958,194
11.6099,199
11.6114,202
11.6114,203
11.6114,201
11.6114,196
11.6114,192
11.6114,191
11.6114,193
11.6258,197
11.6258,201
11.6258,203
11.6258,202
11.6258,198
11.6258,194
11.6258,191
11.6258,192
11.6416,196
11.6416,200
11.6416,203
11.6416,203
11.6416,200
11.6416,195
11.6416,192
11.6416,191
11.6586,194
11.6592,199
11.6617,203
11.6633,203
11.6657,201
11.6676,197
11.6697,193
11.6717,191
11.6737,193
11.6752,197
11.6777,201
11.679,204
11.679,202
11.679,198
11.679,193
11.679,191
11.6896,191
11.6914,195
11.6937,200
11.6948,203
11.6948,203
11.6948,199
11.6948,195
11.6948,191
11.7055,191
11.7055,193
11.7055,198
11.7117,202
11.7117,203
11.7117,201
11.7117,196
11.7117,192
11.7216,191
11.7216,192
11.7251,197
11.7271,201
11.7291,203
11.7311,202
11.7318,198
11.7338,193
11.7376,191
11.7376,191
11.7376,195
11.7376,200
11.7376,203
11.7376,203
11.7376,199
11.7376,195
11.7536,191
11.7536,191
11.7536,194
11.7536,199
11.7536,202
11.7536,203
11.7536,201
11.7536,196
11.7695,193
11.7695,191
11.7695,192
11.7695,197
11.7695,201
11.7695,203
11.7695,202
11.7695,198
11.7855,194
11.7877,191
11.7897,191
11.7917,195
11.7917,200
11.7917,203
11.7917,203
11.7917,200
11.8014,195
11.8014,191
11.8014,191
11.8014,194
11.8014,199
11.8121,202
11.8121,203
11.8121,201
11.8173,197
11.8197,192
11.8217,191
11.8237,192
11.8237,197
11.8237,201
11.8237,203
11.8237,202
11.8333,198
11.8352,194
11.8377,191
11.8377,192
11.8377,195
11.8377,200
11.8377,203
11.8377,203
11.8495,200
11.8495,195
11.8495,192
11.8495,191
11.8495,194
11.8495,199
11.8495,202
11.8495,203
11.8655,201
11.8655,197
11.8655,193
11.8655,191
11.8655,193
11.8655,197
11.8655,201
11.8655,203
11.8817,202
11.8817,198
11.8817,194
11.8817,191
11.8817,191
11.8817,195
11.8817,200
11.8953,203
11.8974,203
11.8983,200
11.9013,195
11.9032,191
11.9052,191
11.9071,194
11.9093,199
11.9114,202
11.9135,203
11.915,201
11.9176,197
11.9194,192
11.9216,191
11.9232,192
11.9232,197
11.9232,201
11.9287,204
11.9287,202
11.9287,198
11.9287,194
11.9287,191
11.9287,191
11.9287,196
11.9287,200
11.9445,203
11.9479,203
11.9497,200
11.9519,195
11.9519,191
11.9519,191
11.9519,194
11.9602,199
11.9602,202
11.9602,203
11.9602,201
11.9602,197
11.9602,192
11.9602,191
11.9602,193
11.9761,197
11.9771,201
11.9771,203
11.9771,202
11.9771,198
11.9771,194
11.9771,191
11.9771,191
11.9919,195
11.9919,200
11.9919,203
11.9919,203
11.9919,200
11.9919,195
11.9919,191
11.9919,191
12.0078,194
12.009,198
12.009,202
12.0128,203
12.0128,201
12.0128,197
12.0128,192
12.0128,191
12.0239,193
12.0257,197
12.0277,201
12.0277,203
12.0317,202
12.0337,198
12.0357,194
12.0377,191
12.0397,191
12.0412,195
12.0437,200
12.045,203
12.0472,203
12.0472,200
12.0472,195
12.0472,192
12.0555,191
12.0555,194
12.0555,199
12.0555,202
12.0555,203
12.0555,201
12.0555,197
12.0555,193
12.0715,191
12.0715,192
12.0715,197
12.0715,201
12.0715,203
12.0715,202
12.0715,198
12.0715,194
12.0874,191
12.0874,191
12.0874,196
12.0874,200
12.0874,203
12.0874,203
12.0874,200
12.0874,195
12.1035,191
12.1035,191
12.1035,194
12.1035,198
12.1035,202
12.1129,203
12.1129,201
12.1129,197
12.1195,193
12.1195,191
12.1195,193
12.1195,197
12.1195,201
12.1195,203
12.1195,203
12.1195,198
12.1354,194
12.1374,191
12.1394,191
12.1414,195
12.1414,200
12.1414,203
12.1414,203
12.1414,200
12.1514,195
12.1514,192
12.1514,191
12.1514,194
12.1514,198
12.1514,202
12.1514,203
12.1514,201
12.1674,197
12.1674,192
12.1674,191
12.1674,192
12.1674,197
12.1674,201
12.1674,203
12.1674,202
12.1834,198
12.1856,194
12.1856,191
12.1856,191
12.1856,195
12.1856,200
12.1856,203
12.1972,203
12.1997,200
12.2017,195
12.2039,191
12.2057,191
12.2074,194
12.2074,198
12.2074,202
12.2129,203
12.2129,201
12.2129,197
12.2129,192
12.2216,191
12.2216,192
12.2216,197
12.2216,201
12.2216,203
12.2216,203
12.2216,198
12.2216,194
12.2376,191
12.2392,191
12.2409,195
12.2409,200
12.2409,203
12.2409,203
12.2409,200
12.2409,196
12.2535,192
12.2535,192
12.2535,195
12.2535,200
12.2535,203
12.2535,204
12.2535,202
12.2535,197
12.2695,192
12.2695,190
12.2695,191
12.2695,196
12.2695,200
12.2695,202
12.2695,201
12.2695,197
12.2855,192
12.2855,190
12.2855,190
12.2855,194
12.2855,199
12.2855,203
12.2855,203
12.2855,200
12.3015,196
12.3015,192
12.3015,191
12.3015,194
12.3015,198
12.3015,202
12.3132,203
12.3132,201
12.3175,197
12.3175,192
12.3175,191
12.3175,192
12.3175,197
12.3175,201
12.3175,203
12.3175,202
12.3335,198
12.3358,194
12.3358,191
12.3358,192
12.3358,195
12.3358,200
12.3358,203
12.3358,203
12.3497,200
12.3497,195
12.3497,192
12.3556,191
12.3573,194
12.3573,198
12.3573,202
12.3573,203
12.3657,201
12.3657,197
12.3657,193
12.3657,191
12.3657,192
12.3657,197
12.3657,201
12.3657,203
12.3816,202
12.3816,198
12.3856,194
12.3876,191
12.3896,191
12.3913,195
12.3936,200
12.395,203
12.3972,203
12.3996,200
12.3996,195
12.3996,192
12.3996,191
12.3996,194
12.3996,198
12.3996,202
12.4133,203
12.4158,202
12.4158,197
12.4158,193
12.4158,191
12.4158,192
12.4158,197
12.4158,201
12.4294,203
12.4294,203
12.4294,199
12.4294,194
12.4294,191
12.4294,191
12.4294,195
12.4294,200
12.4453,203
12.4473,203
12.4473,200
12.4473,195
12.4473,192
12.4473,191
12.4473,194
12.4473,198
12.4613,202
12.4632,203
12.4657,202
12.4657,197
12.4657,193
12.4657,191
12.4657,192
12.4657,197
12.4788,201
12.4788,204
12.4809,203
12.4809,198
12.4809,194
12.4809,191
12.4809,191
12.4809,195
12.4935,200
12.4935,203
12.4935,203
12.4935,200
12.4935,195
12.4935,192
12.4935,191
12.4935,194
12.5096,198
12.5096,202
12.5096,203
12.5137,201
12.5137,197
12.5137,193
12.5137,191
12.5137,192
12.5255,196
12.5255,201
12.5255,203
12.5255,202
12.5255,198
12.5255,194
12.5255,190
12.5255,191
12.5416,195
12.5416,199
12.5449,202
12.5472,203
12.5497,200
12.5517,195
12.5517,191
12.5517,191
12.5574,193
12.5574,198
12.5574,202
12.5574,203
12.5574,201
12.5574,197
12.5574,192
12.5574,191
12.5736,192
12.5736,196
12.5736,201
12.5736,203
12.5736,202
12.5736,199
12.5736,194
12.5736,191
12.5895,191
12.5917,195
12.5917,200
12.5917,203
12.5917,203
12.5917,200
12.5917,195
12.5917,192
12.6057,191
12.6057,193
12.6057,198
12.6057,202
12.6057,203
12.614,202
12.614,197
12.614,193
12.6218,191
12.6218,192
12.6218,197
12.6218,201
12.6218,203
12.6218,202
12.6218,199
12.6218,194
12.6378,191
12.6378,191
12.6378,195
12.6378,199
12.6378,203
12.6468,203
12.6468,200
12.6468,196
12.6539,192
12.6539,191
12.6539,193
12.6539,198
12.6539,202
12.6539,203
12.6539,201
12.6539,197
12.6698,193
12.6717,191
12.6737,192
12.6757,197
12.6757,201
12.6757,203
12.6757,202
12.6757,199
12.6858,194
12.6858,191
12.6858,191
12.6858,195
12.6858,200
12.6858,203
12.6858,203
12.6858,200
12.7019,195
12.7019,192
12.7019,191
12.7019,194
12.7019,198
12.7019,202
12.7019,203
12.7145,202
12.7177,197
12.7192,193
12.7198,191
12.7198,192
12.7198,196
12.7198,201
12.7294,203
12.7317,203
12.7337,199
12.7357,194
12.7377,191
12.7391,191
12.7417,195
12.7437,199
12.746,203
12.7464,203
12.7464,200
12.7464,196
12.7464,192
12.7464,191
12.7464,193
12.7464,198
12.7619,202
12.7619,203
12.7619,201
12.7619,197
12.7619,193
12.7619,191
12.7619,192
12.7619,196
12.7778,201
12.7778,203
12.7817,203
12.7817,199
12.7817,194
12.7817,191
12.7817,191
12.7817,195
12.7937,199
12.795,203
12.7971,203
12.7997,200
12.8017,195
12.8036,192
12.8057,191
12.8073,193
12.8097,198
12.8097,202
12.8097,203
12.8151,201
12.8177,197
12.8197,193
12.8217,191
12.8217,192
12.8255,196
12.8255,201
12.8255,203
12.8255,203
12.8255,199
12.8255,194
12.8255,191
12.8255,191
12.8416,195
12.8416,200
12.8416,203
12.8416,203
12.8416,200
12.8416,195
12.8416,192
12.8416,191
12.8574,193
12.8574,198
12.8617,202
12.8617,203
12.8617,202
12.8617,197
12.8617,193
12.8617,191
12.8736,192
12.8736,196
12.8736,201
12.8736,203
12.8736,202
12.8736,199
12.8736,194
12.8736,191
12.8894,191
12.8917,195
12.8937,199
12.8949,203
12.8972,203
12.8997,200
12.9017,195
12.9037,192
12.9057,191
12.9074,193
12.9097,198
12.9117,202
12.9117,203
12.9161,202
12.9177,197
12.9177,193
12.9216,191
12.9216,192
12.9216,196
12.9216,201
12.9216,203
12.9216,203
12.9216,199
12.9216,194
12.9376,191
12.9396,191
12.9417,195
12.9437,200
12.945,203
12.9471,203
12.9471,200
12.9471,195
12.9535,192
12.9535,191
12.9535,193
12.9535,198
12.9535,202
12.9535,203
12.9535,202
12.9535,197
12.9695,193
12.9695,191
12.9695,192
12.9695,196
12.9695,201
12.9695,203
12.9695,203
12.9695,199
12.9856,194
12.9856,191
12.9856,191
12.9856,195
12.9856,199
12.9856,203
12.9856,203
12.9856,200
13.0016,196
13.0037,192
13.0057,191
13.0073,193
13.0097,198
13.0097,202
13.0097,203
13.0157,201
13.0175,197
13.0197,193
13.0213,191
13.0237,192
13.0252,196
13.0277,201
13.0277,204
13.0317,203
13.0332,199
13.0357,195
13.0377,192
13.0397,192
13.0417,196
13.0431,201
13.0431,204
13.0431,204
13.0492,201
13.0492,196
13.0492,192
13.0492,190
13.0492,193
13.0492,197
13.0492,201
13.0492,202
13.0652,201
13.0677,196
13.0697,191
13.0717,189
13.0737,191
13.0737,195
13.0737,200
13.0737,203
13.0812,203
13.0837,199
13.0837,195
13.0837,191
13.0837,192
13.0837,195
13.0837,200
13.0837,203
13.097,203
13.097,200
13.097,196
13.097,192
13.097,191
13.097,193
13.097,198
13.097,202
13.1131,203
13.116,202
13.116,197
13.116,193
13.116,191
13.116,192
13.116,196
13.116,201
13.129,203
13.1319,203
13.1339,199
13.1359,194
13.1377,191
13.1392,191
13.1392,195
13.1392,199
13.1451,203
13.1451,203
13.1451,201
13.1451,196
13.1451,192
13.1451,191
13.1451,193
13.1451,198
13.1612,202
13.1612,203
13.1612,202
13.1612,197
13.1612,193
13.1612,191
13.1612,192
13.1612,196
13.1775,201
13.1775,203
13.1775,203
13.1775,199
13.1775,194
13.1775,191
13.1775,191
13.1775,194
13.1935,199
13.1935,203
13.1935,203
13.1935,201
13.1935,196
13.1935,192
13.1935,191
13.1935,193
13.2094,198
13.2114,202
13.2134,203
13.2154,202
13.2159,197
13.2159,193
13.2159,191
13.2159,192
13.2256,196
13.2256,201
13.2256,203
13.2256,203
13.2256,199
13.2256,194
13.2256,191
13.2256,191
13.2415,195
13.2432,199
13.2462,203
13.2472,203
13.2497,201
13.2516,196
13.2536,192
13.2557,191
13.2573,193
13.2597,198
13.2626,202
13.2626,203
13.2657,202
13.2677,198
13.2677,193
13.2677,191
13.2736,192
13.2757,196
13.2757,201
13.2757,203
13.2757,203
13.2757,199
13.2757,194
13.2757,191
13.2896,191
13.2912,195
13.2912,199
13.2912,203
13.2912,203
13.2912,200
13.2912,196
13.2912,192
13.3057,191
13.3057,193
13.3057,197
13.3057,202
13.3057,203
13.3057,201
13.3165,197
13.3165,193
13.3217,191
13.3237,191
13.3237,196
13.3237,200
13.3237,203
13.3237,202
13.3237,199
13.3237,194
13.3374,191
13.3397,191
13.3397,194
13.3397,199
13.3397,202
13.3397,203
13.3397,200
13.3397,196
13.3536,192
13.3536,191
13.3572,193
13.3572,198
13.3572,202
13.3572,203
13.3572,202
13.3572,197
13.3696,193
13.3717,191
13.3717,192
13.3717,196
13.3717,201
13.3717,203
13.3717,203
13.3717,199
13.3855,195
13.3855,191
13.3855,191
13.3855,195
13.3855,199
13.3855,202
13.3855,203
13.3855,200
13.4016,196
13.4016,192
13.4057,191
13.4073,193
13.4097,198
13.4116,202
13.4116,203
13.4156,202
13.4177,197
13.4177,193
13.4177,191
13.4177,192
13.4177,196
13.4177,201
13.4177,203
13.4177,203
13.4336,199
13.4351,194
13.4377,191
13.4396,191
13.4418,194
13.4429,199
13.4448,203
13.4448,203
13.4497,200
13.4497,196
13.4497,192
13.4497,191
13.4497,193
13.4497,198
13.4497,202
13.4497,203
13.4497,202
13.4657,198
13.4657,193
13.4657,191
13.4657,192
13.4657,196
13.4657,201
13.4657,203
13.4815,203
13.4826,199
13.4826,195
13.4826,191
13.4826,191
13.4826,195
13.4826,199
13.4826,203
13.4974,203
13.4974,201
13.4974,196
13.4974,192
13.4974,191
13.4974,193
13.4974,198
13.4974,202
13.5131,203
13.5152,202
13.5172,197
13.5197,193
13.521,191
13.5231,192
13.5231,196
13.5231,201
13.5291,203
13.5312,203
13.5332,199
13.5352,195
13.5372,191
13.5383,191
13.5383,195
13.5383,199
13.5451,203
13.5471,203
13.5471,201
13.5471,196
13.5471,192
13.5471,191
13.5471,193
13.5471,198
13.5621,202
13.5633,204
13.5633,202
13.5633,198
13.5633,193
13.5633,191
13.5633,192
13.5633,196
13.5768,201
13.5789,203
13.58,203
13.58,199
13.5837,195
13.5837,191
13.5837,191
13.5837,194
13.5934,199
13.5934,203
13.5934,203
13.5934,201
13.5934,196
13.5934,192
13.5934,191
13.5934,193
13.6088,198
13.6088,202
13.6088,203
13.6088,202
13.6088,197
13.6196,193
13.6196,191
13.6196,192
13.6248,196
13.6277,201
13.6277,203
13.6277,203
13.6277,199
13.6277,195
13.6277,191
13.6277,191
13.6405,194
13.6437,199
13.6437,203
13.6437,203
13.6437,201
13.6437,196
13.654,192
13.6553,191
13.6577,193
13.6591,197
13.6591,202
13.6591,203
13.6591,202
13.6591,198
13.6591,193
13.6719,191
13.6719,192
13.6719,196
13.6719,200
13.6719,203
13.6719,203
13.6719,199
13.6719,195
13.6877,192
13.6877,192
13.6877,195
13.6877,199
13.6877,202
13.6877,203
13.6877,201
13.6877,196
13.7037,193
13.7037,191
13.7037,193
13.7037,197
13.7037,202
13.7037,203
13.7037,202
13.7037,198
13.7201,194
13.7201,191
13.7201,192
13.7201,196
13.7201,200
13.7201,203
13.7201,203
13.7201,199
13.7356,195
13.7356,192
13.7376,191
13.7376,195
13.7376,199
13.7376,202
13.7376,203
13.7376,201
13.7515,196
13.7515,193
13.7515,191
13.7515,193
13.7515,197
13.7515,201
13.7515,203
13.7515,202
13.7676,198
13.7695,194
13.7712,191
13.7737,192
13.7757,196
13.7757,200
13.779,203
13.7817,202
13.7837,199
13.7837,195
13.7877,192
13.7897,192
13.7917,195
13.7937,199
13.7955,202
13.7955,203
13.7955,201
13.7955,197
13.8035,194
13.8035,192
13.8073,194
13.8097,198
13.8116,202
13.8116,203
13.8116,201
13.8116,197
13.8202,193
13.8202,190
13.8202,191
13.8202,195
13.8202,199
13.8202,201
13.8202,201
13.8202,198
13.8358,194
13.8358,191
13.8358,192
13.8358,195
13.8358,199
13.8358,202
13.8358,203
13.8358,201
13.8519,197
13.8519,193
13.8519,192
13.8519,193
13.8519,197
13.8519,201
13.8519,203
13.8519,201
13.8678,198
13.8689,194
13.8689,191
13.8689,192
13.8689,196
13.8689,200
13.8689,202
13.8689,202
13.8837,199
13.8837,195
13.8837,192
13.8837,192
13.8837,194
13.8837,198
13.8837,201
13.8959,202
13.9001,200
13.9013,196
13.9037,193
13.9037,192
13.9037,193
13.9037,197
13.9037,201
13.9037,203
13.9154,201
13.9169,198
13.919,194
13.9212,192
13.9231,192
13.9249,196
13.9274,200
13.9295,203
13.9313,202
13.9331,199
13.9351,195
13.9351,192
13.9351,192
13.9351,194
13.9351,199
13.9351,201
13.9472,202
13.9492,200
13.9512,196
13.9532,193
13.9552,191
13.9552,193
13.9552,197
13.9552,201
13.9631,203
13.9631,202
13.9631,198
13.9688,194
13.9711,191
13.973,192
13.9753,196
13.9765,200
13.9782,203
13.9801,202
13.9801,199
13.9801,195
13.9801,192
13.9801,192
13.9801,195
13.9801,198
13.9944,202
13.9964,203
13.9964,201
13.9964,196
13.9964,193
13.9964,191
13.9964,193
13.9964,197
14.0103,201
14.0103,203
14.0103,202
14.0103,198
14.0103,194
14.0207,191
14.0207,192
14.0207,196
14.0264,200
14.0264,203
14.0312,203
14.0332,199
14.0351,195
14.0372,192
14.0391,191
14.0411,194
14.0423,199
14.0423,202
14.0423,203
14.0423,201
14.0423,196
14.0423,193
14.0423,191
14.0423,193
14.0582,197
14.0582,201
14.0631,203
14.0631,202
14.0631,197
14.0631,193
14.0631,191
14.0741,191
14.0741,195
14.0741,200
14.0741,203
14.0741,202
14.0741,199
14.0741,194
14.0741,191
14.0741,191
14.0915,194
14.0925,198
14.0925,202
14.0925,203
14.0925,200
14.0925,196
14.0925,192
14.0925,191
14.1063,193
14.1063,197
14.1063,201
14.1063,203
14.1063,202
14.1063,197
14.1063,193
14.1212,191
14.123,191
14.1252,196
14.1252,200
14.1252,203
14.1252,203
14.1252,199
14.1252,195
14.1252,191
14.1392,191
14.1392,194
14.1392,199
14.1392,202
14.1466,203
14.1466,201
14.1466,196
14.1466,192
14.154,191
14.154,193
14.154,197
14.154,202
14.154,203
14.154,202
14.154,198
14.1697,193
14.1717,191
14.1717,192
14.1717,196
14.1773,200
14.1783,203
14.1783,203
14.1783,199
14.1783,195
14.1874,191
14.1874,191
14.1874,194
14.1874,199
14.1874,202
14.1874,203
14.1874,201
14.2014,196
14.2031,192
14.2052,191
14.2072,193
14.2091,197
14.2111,202
14.2111,203
14.2111,202
14.2173,198
14.2173,193
14.2216,191
14.2216,192
14.2216,196
14.2216,200
14.2216,203
14.2216,203
14.2332,199
14.2332,195
14.2332,191
14.2332,191
14.2332,194
14.2332,199
14.2332,202
14.2332,203
14.2492,201
14.2511,196
14.2532,192
14.2532,191
14.2532,193
14.2532,197
14.2532,201
14.2629,203
14.2651,202
14.2671,198
14.2691,193
14.2711,191
14.2711,191
14.2711,196
14.2711,200
14.2711,203
14.2812,203
14.2812,199
14.2812,195
14.2812,191
14.2812,191
14.2812,194
14.2812,199
14.2812,202
14.2979,203
14.2992,201
14.2998,196
14.2998,192
14.2998,191
14.2998,193
14.2998,197
14.2998,201
14.313,203
14.3151,202
14.3171,198
14.3192,193
14.3217,191
14.3231,191
14.3251,196
14.3272,200
14.3293,203
14.331,203
14.331,199
14.331,195
14.331,191
14.331,191
14.331,194
14.331,199
14.3453,202
14.3473,203
14.3473,201
14.3473,196
14.3473,192
14.3473,191
14.3575,193
14.3583,197
14.3614,202
14.3614,203
14.3614,202
14.3614,198
14.3614,193
14.3614,191
14.3614,191
14.3614,196
14.3776,200
14.3776,203
14.3776,203
14.3776,199
14.3776,195
14.3776,191
14.3776,191
14.3776,194
14.3937,199
14.3937,203
14.3977,203
14.3977,201
14.3977,196
14.3977,192
14.3977,191
14.3977,193
14.4102,197
14.4114,202
14.4131,203
14.4131,202
14.4131,198
14.4131,193
14.4219,191
14.4219,191
14.4257,196
14.4257,200
14.4277,203
14.4277,203
14.4277,199
14.4277,195
14.4277,191
14.4277,191
14.4415,194
14.4437,199
14.445,202
14.4477,203
14.449,201
14.449,196
14.449,193
14.449,191
14.4574,193
14.4574,197
14.4574,201
14.4631,203
14.4657,202
14.4677,198
14.4697,193
14.4717,191
14.4737,191
14.4757,195
14.4757,200
14.4757,203
14.4757,203
14.4757,200
14.4757,195
14.4757,191
14.4895,191
14.4895,194
14.4895,199
14.4895,202
14.4895,203
14.4895,201
14.4895,196
14.4895,192
14.5056,191
14.5075,193
14.5099,197
14.5116,201
14.5116,203
14.5116,202
14.5116,198
14.5116,193
14.5221,191
14.5237,191
14.5256,195
14.5256,200
14.5256,203
14.5256,203
14.5256,199
14.5256,195
14.5375,191
14.5397,191
14.5417,194
14.5417,199
14.5417,203
14.5417,203
14.5417,201
14.5417,197
14.5536,193
14.5536,191
14.5536,193
14.5536,198
14.5536,203
14.5536,205
14.5536,203
14.5536,199
14.5695,194
14.5717,191
14.5737,191
14.5756,195
14.5777,199
14.5777,202
14.5817,202
14.5817,199
14.5856,194
14.5856,190
14.5892,190
14.5917,193
14.5917,198
14.5917,202
14.5917,203
14.5917,201
14.6014,197
14.6036,193
14.6036,191
14.6036,193
14.6036,198
14.6036,202
14.6036,204
14.6036,202
14.6174,198
14.6174,194
14.6174,191
14.6224,192
14.6224,196
14.6224,200
14.6224,203
14.6224,203
14.6332,199
14.6332,195
14.6332,191
14.6332,191
14.6332,194
14.6332,199
14.6332,202
14.6332,203
14.6495,201
14.6517,197
14.6517,193
14.6517,191
14.6517,193
14.6517,197
14.6517,202
14.6517,204
14.6656,202
14.6679,198
14.6699,194
14.6717,191
14.6738,192
14.6756,196
14.6756,200
14.6756,203
14.6815,203
14.6815,200
14.6815,195
14.6815,191
14.6815,191
14.6815,194
14.6815,199
14.6815,203
14.6975,203
14.6997,201
14.7007,196
14.7007,192
14.7007,191
14.7007,193
14.7007,197
14.7007,202
14.7135,204
14.7135,202
14.7135,198
14.7135,194
14.7135,191
14.7225,191
14.7225,196
14.7225,200
14.7316,203
14.7316,203
14.7316,200
14.7336,195
14.7357,191
14.7397,191
14.7397,194
14.7437,199
14.7455,203
14.7455,203
14.7455,201
14.7455,196
14.7455,192
14.7455,191
14.7455,192
14.7455,197
14.7613,201
14.7613,203
14.7613,202
14.7613,198
14.7613,193
14.7613,191
14.7613,191
14.7613,195
14.7776,200
14.7776,203
14.7817,203
14.7837,199
14.7857,195
14.7876,191
14.7876,191
14.7876,194
14.7937,199
14.7937,202
14.7971,203
14.799,201
14.801,197
14.8029,192
14.8047,191
14.8065,193
14.8096,197
14.8096,201
14.8096,203
14.8096,202
14.8096,198
14.8096,193
14.8096,191
14.8228,191
14.8254,195
14.827,200
14.8279,203
14.8311,203
14.8331,199
14.8351,195
14.8351,191
14.8351,191
14.8412,193
14.8412,198
14.8463,202
14.8463,203
14.8492,201
14.8511,196
14.8532,192
14.8552,190
14.8571,192
14.8591,197
14.8627,201
14.8627,203
14.8627,202
14.8627,198
14.8627,193
14.8627,190
14.8732,191
14.8732,195
14.8732,200
14.8732,203
14.8732,203
14.8732,199
14.8732,195
14.8732,191
14.8892,191
14.891,194
14.8931,199
14.8949,202
14.8972,203
14.8991,201
14.8991,196
14.8991,192
14.9052,191
14.9071,192
14.9071,197
14.9071,201
14.9071,203
14.9071,202
14.9071,198
14.9071,193
14.9217,191
14.923,191
14.9251,195
14.9251,200
14.9251,203
14.9251,203
14.9251,200
14.9251,195
14.9371,191
14.9371,191
14.9371,194
14.9371,199
14.9371,202
14.9371,203
14.9371,201
14.9371,197
14.9529,192
14.9529,191
14.9529,193
14.9529,197
14.9529,201
14.9529,203
14.9529,202
14.9529,198
14.969,194
14.969,191
14.969,191
14.9746,195
14.9766,200
14.9786,203
14.9806,203
14.9826,200
14.9847,195
14.9867,191
14.9887,191
14.9907,194
14.9907,199
14.9907,202
14.9907,203
14.9907,201
15.0004,197
15.0004,192
15.0004,191
15.0004,193
15.0004,197
15.0004,201
15.0004,203
15.0161,202
15.0171,198
15.0197,194
15.0197,191
15.0234,191
15.0234,195
15.0234,200
15.0234,203
15.0321,203
15.0321,200
15.0321,195
15.0321,191
15.0321,191
15.0321,194
15.0321,199
15.0321,202
15.0321,203
15.0483,201
15.0483,197
15.0483,193
15.0483,191
15.0483,192
15.0483,197
15.0483,201
15.0483,203
15.0642,202
15.0642,198
15.0642,193
15.0642,191
15.0642,191
15.0642,195
15.0642,200
15.0642,203
15.0811,203
15.0836,200
15.0856,195
15.0876,191
15.0896,191
15.0916,194
15.0916,198
15.0916,202
15.0973,203
15.0993,201
15.0993,197
15.0993,192
15.0993,191
15.0993,192
15.0993,197
15.1116,201
15.1116,203
15.1116,202
15.1116,198
15.1116,194
15.1116,191
15.1236,191
15.1236,195
15.1276,200
15.1276,203
15.1276,203
15.1276,200
15.1276,195
15.1276,191
15.1276,191
15.1276,194
15.1435,199
15.1435,202
15.1435,203
15.1435,201
15.1435,197
15.1435,193
15.1435,191
15.1435,192
15.1594,197
15.1616,201
15.1616,203
15.1656,202
15.1656,198
15.1656,194
15.1656,191
15.1656,191
15.1755,195
15.1755,200
15.1755,203
15.1755,203
15.1755,200
15.1755,195
15.1755,191
15.1755,191
15.1914,194
15.1914,198
15.1914,202
15.1914,203
15.1914,201
15.1914,197
15.1914,193
15.1914,191
15.2073,192
15.2098,197
15.2116,201
15.2133,204
15.2133,203
15.2133,199
15.2133,194
15.2133,191
15.224,191
15.2256,195
15.2256,200
15.2256,203
15.2256,203
15.2256,200
15.2256,195
15.2256,191
15.2394,191
15.2394,193
15.2394,198
15.2394,202
15.2394,203
15.2394,201
15.2394,197
15.2394,193
15.2555,191
15.2555,192
15.2595,197
15.2615,201
15.2615,203
15.2615,202
15.2615,198
15.2615,194
15.2716,191
15.2731,191
15.2756,195
15.2776,200
15.2776,203
15.2817,203
15.2836,200
15.2857,195
15.2877,191
15.2897,191
15.2917,194
15.2917,198
15.2917,202
15.2917,203
15.2917,201
15.2917,197
15.3036,193
15.3053,191
15.3073,192
15.3073,197
15.3073,202
15.3073,204
15.3073,203
15.3073,199
15.3197,195
15.3197,192
15.3242,193
15.3242,196
15.3242,201
15.3242,204
15.3242,204
15.3242,200
15.3356,195
15.3356,191
15.3356,190
15.3356,193
15.3356,197
15.3356,201
15.3356,202
15.3356,200
15.3514,195
15.3514,191
15.3514,190
15.3577,192
15.3598,197
15.3614,202
15.3634,204
15.3654,203
15.3678,199
15.3688,194
15.3702,191
15.3702,192
15.3702,195
15.3702,200
15.3702,203
15.3811,203
15.3833,200
15.385,195
15.3873,192
15.3896,191
15.3916,194
15.3936,198
15.3948,202
15.3962,203
15.3962,201
15.3962,197
15.3962,193
15.4055,191
15.4055,192
15.4075,197
15.4075,201
15.4075,203
15.4075,203
15.4075,198
15.4075,194
15.4215,191
15.4236,191
15.4247,195
15.4247,200
15.4247,203
15.4247,203
15.4247,200
15.4247,195
15.4376,192
15.4376,191
15.4376,194
15.4376,198
15.4376,202
15.4376,203
15.4376,202
15.4376,197
15.4536,193
15.4536,191
15.4536,192
15.4536,197
15.4536,201
15.4536,204
15.4536,203
15.4536,199
15.4695,194
15.4695,191
15.4695,192
15.4695,195
15.4695,200
15.4695,203
15.4695,203
15.4695,200
15.4855,195
15.4855,191
15.4855,191
15.4855,194
15.4855,198
15.4855,202
15.4855,203
15.4855,201
15.5015,197
15.5035,193
15.5035,191
15.5055,192
15.5055,197
15.5055,201
15.5055,204
15.5055,202
15.5174,198
15.5196,194
15.5216,191
15.5236,191
15.5261,195
15.5261,200
15.5261,203
15.5261,203
15.5335,200
15.5356,195
15.5356,191
15.5356,191
15.5356,194
15.5356,198
15.5356,202
15.5356,203
15.5496,201
15.5516,197
15.5516,193
15.5516,191
15.5516,192
15.5516,197
15.5516,201
15.5516,203
15.5655,203
15.5655,198
15.5655,194
15.5655,191
15.5655,191
15.5655,195
15.5655,200
15.5655,203
15.5817,203
15.5837,200
15.5856,195
15.5876,191
15.5897,191
15.5897,193
15.5897,198
15.5897,202
15.5974,203
15.5994,201
15.5994,197
15.5994,192
15.5994,190
15.5994,192
15.5994,196
15.5994,201
15.6133,203
15.6133,202
15.6133,198
15.6133,193
15.6133,191
15.6133,191
15.6259,195
15.6259,199
15.629,203
15.629,203
15.629,200
15.629,195
15.629,191
15.629,191
15.629,193
15.629,198
15.6451,202
15.6451,203
15.6451,201
15.6451,197
15.6451,193
15.6451,191
15.6451,192
15.6451,197
15.6612,201
15.663,203
15.6657,203
15.6657,199
15.6657,194
15.6657,191
15.6657,191
15.6657,195
15.6771,199
15.678,203
15.678,203
15.678,200
15.678,195
15.678,191
15.678,191
15.678,193
15.6931,198
15.6931,202
15.6931,203
15.6931,201
15.6931,197
15.6931,193
15.6931,191
15.6931,192
15.7092,196
15.7116,201
15.7116,203
15.7116,203
15.7116,199
15.7116,194
15.7116,191
15.7116,191
15.726,195
15.726,200
15.7279,203
15.7279,203
15.7279,200
15.7279,196
15.7279,192
15.7279,191
15.7416,194
15.7416,198
15.7416,202
15.7416,203
15.7416,202
15.7416,197
15.7416,193
15.7416,191
15.7575,192
15.7595,196
15.7595,201
15.7595,203
15.7595,203
15.7595,198
15.7595,194
15.7595,191
15.7737,191
15.7751,195
15.7768,200
15.7768,203
15.7768,203
15.7768,200
15.7768,195
15.7768,191
15.7897,191
15.7897,193
15.7897,198
15.7897,202
15.7897,203
15.7897,201
15.7897,197
15.7897,193
15.8057,191
15.8057,192
15.8057,196
15.8057,201
15.8057,203
15.8057,203
15.8057,198
15.8057,194
15.8216,191
15.8216,191
15.826,195
15.826,199
15.826,203
15.826,203
15.826,200
15.826,195
15.8376,191
15.8396,191
15.8416,193
15.8436,198
15.8449,202
15.8473,203
15.8496,202
15.8516,197
15.8534,193
15.8534,190
15.8534,192
15.8534,196
15.8534,201
15.8534,203
15.8534,203
15.8534,199
15.8695,194
15.8695,191
15.8695,191
15.8695,195
15.8695,200
15.8695,203
15.8695,203
15.8695,200
15.8855,196
15.8873,192
15.8893,191
15.8893,194
15.8893,198
15.8893,202
15.8972,203
15.8996,202
15.9016,197
15.9036,193
15.9056,191
15.9073,192
15.9097,196
15.9116,201
15.9132,203
15.9132,203
15.9132,199
15.9132,194
15.9216,191
15.9231,191
15.925,195
15.9271,200
15.9293,203
15.9312,203
15.9334,200
15.935,196
15.9371,192
15.9392,191
15.9412,193
15.9432,198
15.9432,202
15.9432,203
15.9432,202
15.9432,197
15.9531,192
15.9531,191
15.9531,192
15.9531,197
15.9531,201
15.9531,203
15.9531,203
15.9531,199
15.9691,194
15.9691,191
15.9726,191
15.9746,195
15.9775,199
15.9793,203
15.9811,203
15.9811,200
15.985,195
15.9873,192
15.9873,191
15.9873,193
15.9873,198
15.9873,202
15.9873,203
15.9873,202
16.0009,197
16.0009,193
16.0009,191
16.0009,192
16.0009,196
16.0009,201
16.0009,203
16.0009,203
16.0168,199
16.0191,194
16.0191,191
16.0191,191
16.0191,195
16.0266,199
16.0266,203
16.0266,203
16.0328,200
16.0352,196
16.0352,192
16.0352,191
16.0352,193
16.0352,198
16.0352,202
16.0352,203
16.049,202
16.049,197
16.049,193
16.049,191
16.049,192
16.049,197
16.049,201
16.049,204
16.0651,203
16.0651,200
16.0651,195
16.0699,192
16.0699,193
16.0699,196
16.0699,200
16.0699,203
16.0812,203
16.0812,199
16.0812,194
16.0875,190
16.0875,190
16.0875,192
16.0875,197
16.0875,201
16.0976,202
16.0982,200
16.0982,196
16.0982,192
16.1046,191
16.1046,192
16.1046,197
16.1046,202
16.1131,204
16.1151,203
16.1151,199
16.1151,195
16.121,191
16.121,191
16.121,195
16.127,200
16.1289,203
16.1289,203
16.1289,200
16.1289,195
16.1376,192
16.1394,191
16.1394,194
16.1435,198
16.145,202
16.147,204
16.149,202
16.151,197
16.151,193
16.151,191
16.151,192
16.151,196
16.1611,201
16.163,203
16.1652,203
16.1676,199
16.1696,194
16.1716,191
16.1736,191
16.1736,195
16.177,199
16.179,203
16.1799,203
16.1799,201
16.1799,196
16.1799,192
16.1799,191
16.1799,193
16.1932,198
16.1946,202
16.1972,203
16.1992,202
16.2011,197
16.203,193
16.2049,191
16.2049,192
16.209,196
16.2116,201
16.2116,203
16.2116,203
16.2116,199
16.2116,194
16.2116,191
16.2116,191
16.225,195
16.2276,199
16.2276,203
16.2311,203
16.2331,200
16.2351,196
16.2371,192
16.2371,191
16.2409,194
16.2431,198
16.2431,202
16.2431,203
16.2431,202
16.2431,197
16.2431,193
16.2431,191
16.2568,192
16.2568,196
16.2568,201
16.2568,204
16.2568,203
16.2568,199
16.2568,194
16.2568,191
16.2729,191
16.2729,195
16.2729,200
16.2729,203
16.2798,203
16.2798,201
16.2798,196
16.2798,192
16.2912,191
16.2912,193
16.2912,198
16.2965,202
16.2965,204
16.2965,202
16.2965,197
16.2965,193
16.3051,191
16.3071,192
16.3092,197
16.3107,201
16.3107,203
16.3107,203
16.3107,199
16.3107,194
16.3218,191
16.3223,191
16.3223,195
16.3274,199
16.3274,203
16.3274,203
16.3274,200
16.3274,196
16.337,191
16.337,191
16.337,193
16.337,198
16.337,201
16.337,203
16.337,201
16.337,197
16.3531,192
16.3531,190
16.3531,192
16.3589,196
16.3596,201
16.3596,203
16.3596,202
16.3596,199
16.369,194
16.369,191
16.369,191
16.369,194
16.369,199
16.369,202
16.369,203
16.369,200
16.3849,195
16.3849,191
16.3849,191
16.3849,193
16.3849,198
16.3849,202
16.3849,203
16.3849,202
16.4009,197
16.4009,193
16.4009,191
16.4009,192
16.4009,196
16.4009,201
16.4009,203
16.4009,203
16.4169,199
16.4192,194
16.4192,191
16.4192,191
16.4192,195
16.4279,199
16.4295,203
16.4316,203
16.4337,201
16.4357,196
16.4377,192
16.4397,191
16.4416,193
16.4416,198
16.4457,202
16.4465,203
16.4496,202
16.4496,197
16.4496,193
16.4496,190
16.4496,192
16.4496,196
16.4616,201
16.4632,203
16.4656,203
16.4674,199
16.4674,194
16.4674,191
16.4674,191
16.4674,195
16.4776,199
16.4776,203
16.481,203
16.481,200
16.481,196
16.481,192
16.481,191
16.481,193
16.4937,198
16.4948,202
16.4948,204
16.4948,202
16.4948,197
16.4948,193
16.4948,191
16.4948,192
16.5095,196
16.5095,201
16.5095,203
16.5095,203
16.5095,199
16.5095,195
16.5095,191
16.5095,191
16.5256,195
16.5256,199
16.5282,203
16.5282,203
16.5282,200
16.5282,195
16.5282,192
16.5282,191
16.5416,193
16.5437,198
16.5448,202
16.5477,203
16.5477,202
16.5477,197
16.5477,193
16.5477,191
16.5573,192
16.5596,196
16.5616,201
16.5616,203
16.5657,203
16.5657,199
16.5657,194
16.5657,191
16.5736,191
16.5736,195
16.5736,199
16.5736,203
16.5736,203
16.5736,200
16.5736,196
16.5736,192
16.5896,191
16.5896,193
16.5896,198
16.5896,202
16.5896,203
16.5896,202
16.5896,197
16.5896,193
16.6056,191
16.6056,192
16.6056,196
16.6056,201
16.6056,203
16.6056,203
16.6056,199
16.6056,194
16.6215,191
16.6215,191
16.6215,195
16.6283,199
16.6283,203
16.6283,203
16.6283,200
16.6283,196
16.6374,192
16.6374,191
16.6374,193
16.6374,198
16.6374,202
16.6374,203
16.6374,202
16.6374,197
16.6535,193
16.6535,191
16.6535,192
16.6535,196
16.6535,201
16.6535,204
16.6535,203
16.6535,199
16.6696,194
16.6711,191
16.6711,191
16.6711,195
16.6711,199
16.6711,203
16.6711,203
16.6711,200
16.6855,196
16.6855,192
16.6855,191
16.6855,193
16.6855,198
16.6855,202
16.6855,203
16.6855,202
16.7016,197
16.7016,193
16.7016,191
16.7016,192
16.7016,196
16.7016,201
16.7016,203
16.7016,203
16.7177,199
16.7177,194
16.7177,191
16.7177,191
16.7177,194
16.7283,199
16.7283,203
16.7283,203
16.7337,200
16.7337,196
16.7377,192
16.7396,191
16.7417,193
16.7417,198
16.7417,202
16.7417,203
16.7497,202
16.7497,197
16.7517,193
16.7517,191
16.7517,192
16.7517,196
16.7517,201
16.7517,203
16.7657,203
16.7657,199
16.7657,194
16.7657,191
16.7657,191
16.7657,195
16.7657,199
16.7657,203
16.7817,203
16.7817,201
16.7858,197
16.7878,193
16.7897,192
16.7918,194
16.7938,199
16.7938,203
16.7977,204
16.7977,202
16.7977,197
16.7977,192
16.7977,190
16.7977,191
16.7977,195
16.7977,200
16.8135,202
16.8159,201
16.8176,198
16.8198,193
16.8218,190
16.8237,190
16.8237,194
16.8237,199
16.8284,203
16.8294,204
16.8294,201
16.8294,196
16.8294,193
16.8294,191
16.8294,193
16.8294,198
16.8452,202
16.8478,204
16.8498,202
16.8517,197
16.8517,193
16.8517,191
16.8517,192
16.8517,196
16.8615,201
16.8631,203
16.8658,203
16.8658,199
16.8658,194
16.8658,191
16.8658,191
16.8658,195
16.8775,199
16.8775,203
16.8775,203
16.8775,201
16.8775,196
16.8775,192
16.8775,191
16.8775,193
16.8936,198
16.8936,202
16.8936,204
16.8936,202
16.8936,197
16.8936,193
16.8936,191
16.8936,192
16.9096,196
16.9116,201
16.9131,203
16.9156,203
16.9156,199
16.9156,194
16.9156,191
16.9156,191
16.9257,195
16.9257,199
16.9285,203
16.9285,203
16.9285,201
16.9285,196
16.9285,192
16.9285,191
16.9419,193
16.9419,198
16.9419,202
16.9419,204
16.9419,202
16.9419,197
16.9419,193
16.9419,191
16.9578,192
16.9589,196
16.9595,201
16.9633,203
16.9657,203
16.9677,199
16.9697,195
16.9716,191
16.9737,191
16.9757,195
16.9777,199
16.9789,203
16.9789,203
16.9789,201
16.9789,196
16.9789,192
16.9898,191
16.9898,193
16.9918,198
16.9918,202
16.9918,204
16.9918,202
16.9918,198
16.9918,193
17.0059,191
17.0072,192
17.0079,196
17.0079,201
17.0079,203
17.0079,203
17.0079,199
17.0079,195
17.0218,191
17.0218,191
17.0218,195
17.0284,199
17.0284,203
17.0284,203
17.0284,201
17.0284,196
17.0378,192
17.0396,191
17.0417,193
17.0436,198
17.0449,202
17.0472,203
17.0472,202
17.0472,197
17.0537,193
17.0537,190
17.0537,191
17.0537,196
17.0537,200
17.0537,203
17.0537,202
17.0537,199
17.0697,194
17.0697,191
17.0697,191
17.0697,194
17.0697,199
17.0697,202
17.0697,203
17.0697,200
17.0858,196
17.0876,192
17.0876,191
17.0876,193
17.0876,197
17.0876,202
17.0876,203
17.0876,202
17.1017,197
17.1017,193
17.1017,190
17.1017,192
17.1017,196
17.1017,200
17.1017,203
17.1017,203
17.1177,199
17.1177,194
17.1177,191
17.1177,191
17.1177,194
17.1177,199
17.1287,202
17.1287,203
17.1337,201
17.1337,196
17.1337,192
17.1337,191
17.1337,193
17.1337,198
17.1337,202
17.1337,203
17.1498,202
17.1498,198
17.1498,193
17.1498,191
17.1498,192
17.1498,196
17.1498,201
17.1633,203
17.1657,203
17.1677,199
17.1697,194
17.1716,191
17.1737,191
17.1757,194
17.1757,199
17.1757,203
17.1817,203
17.1817,201
17.1817,196
17.1817,192
17.1817,191
17.1817,193
17.1817,198
17.1817,202
17.1977,203
17.1987,202
17.1987,197
17.1987,193
17.1987,191
17.1987,192
17.1987,196
17.1987,201
17.2134,203
17.2157,203
17.2176,199
17.2196,195
17.2217,191
17.2236,191
17.2236,194
17.2236,199
17.2288,203
17.2288,203
17.2288,201
17.2288,196
17.2288,192
17.2288,191
17.2288,193
17.2288,198
17.2449,202
17.2449,203
17.2449,202
17.2449,198
17.2449,193
17.2449,191
17.2449,192
17.2449,196
17.261,200
17.261,203
17.261,203
17.261,199
17.261,194
17.261,191
17.261,191
17.261,194
17.2771,199
17.2771,203
17.2771,203
17.2771,201
17.2771,196
17.2771,192
17.2771,191
17.2771,193
17.293,198
17.293,202
17.293,203
17.293,202
17.293,198
17.293,193
17.293,191
17.293,192
17.3089,196
17.3129,201
17.3129,203
17.3149,203
17.3179,199
17.3199,195
17.3199,191
17.3199,191
17.325,194
17.325,199
17.3291,203
17.3291,203
17.3291,201
17.3291,196
17.3291,192
17.3291,191
17.3411,193
17.3437,198
17.3443,202
17.3443,203
17.3443,202
17.3443,198
17.3443,193
17.3443,191
17.3572,192
17.3599,196
17.3609,201
17.3609,203
17.3609,203
17.3609,199
17.3609,194
17.3609,191
17.3731,191
17.3757,195
17.3777,199
17.3777,203
17.3817,203
17.3837,201
17.3857,196
17.3877,192
17.3896,191
17.3896,193
17.3896,198
17.3896,202
17.3896,203
17.3896,202
17.3896,198
17.3896,193
17.4056,191
17.4056,192
17.4056,196
17.4056,200
17.4056,203
17.4056,203
17.4056,199
17.4056,194
17.4216,191
17.4231,191
17.4259,194
17.4272,199
17.4293,203
17.4293,203
17.4293,201
17.4293,196
17.4377,192
17.4377,191
17.4377,193
17.4377,197
17.4377,202
17.4377,203
17.4377,202
17.4377,198
17.4537,193
17.4537,191
17.4557,192
17.4557,196
17.4557,200
17.4557,203
17.4557,203
17.4557,199
17.4696,195
17.4696,191
17.4696,191
17.4696,194
17.4696,199
17.4696,203
17.4696,203
17.4696,201
17.4868,196
17.4874,192
17.4874,191
17.4874,193
17.4874,197
17.4874,202
17.497,203
17.4997,202
17.5016,198
17.5033,193
17.5056,191
17.5072,192
17.5097,197
17.5122,201
17.5122,204
17.5122,204
17.5122,201
17.5122,196
17.5216,192
17.5216,192
17.5216,194
17.5216,199
17.5295,202
17.5295,202
17.5295,200
17.5295,195
17.5376,191
17.5392,190
17.5416,192
17.5416,196
17.5416,200
17.5416,202
17.5416,201
17.5416,197
17.5534,193
17.5534,191
17.5534,192
17.5534,197
17.5534,201
17.5534,204
17.5534,203
17.5534,199
17.5694,195
17.5694,191
17.5694,191
17.5694,194
17.5694,199
17.5694,203
17.5694,203
17.5694,201
17.5856,196
17.5876,192
17.5883,191
17.5917,193
17.5917,198
17.5917,202
17.5917,203
17.5917,202
17.6016,198
17.6016,193
17.6057,191
17.6072,192
17.6072,196
17.6072,200
17.6072,203
17.6072,203
17.6177,199
17.6177,195
17.6197,191
17.6197,191
17.6197,194
17.6197,199
17.6294,203
17.6294,203
17.6337,201
17.6337,196
17.6337,192
17.6337,191
17.6337,193
17.6337,198
17.6337,202
17.6337,204
17.6497,202
17.6497,198
17.6497,193
17.6497,191
17.6497,191
17.6497,196
17.6497,200
17.6497,203
17.6656,203
17.6676,199
17.6676,195
17.6676,191
17.6676,191
17.6676,194
17.6676,199
17.6676,203
17.6814,203
17.6836,201
17.6856,196
17.6877,192
17.6896,191
17.6916,193
17.6936,197
17.6936,202
17.6974,203
17.6974,202
17.6974,198
17.6974,193
17.6974,191
17.6974,192
17.6974,196
17.6974,201
17.7131,203
17.7131,203
17.7131,199
17.7131,195
17.7131,191
17.7131,191
17.7131,194
17.7131,199
17.7295,203
17.7304,203
17.7329,201
17.7349,196
17.737,192
17.7391,191
17.7411,193
17.7432,197
17.7449,202
17.7449,203
17.7449,202
17.7449,198
17.7449,193
17.7449,191
17.7449,191
17.7449,196
17.7611,200
17.7611,203
17.7611,203
17.7611,199
17.7611,195
17.7611,191
17.7611,191
17.7611,194
17.7772,199
17.7772,202
17.7772,203
17.7772,201
17.7772,196
17.7772,192
17.7772,190
17.7772,193
17.7935,197
17.7935,201
17.7935,203
17.7935,202
17.7935,197
17.7935,193
17.7935,191
17.7935,191
17.8096,195
17.8096,200
17.8096,203
17.8096,203
17.8096,199
17.8096,195
17.8096,191
17.8096,191
17.8255,194
17.8255,199
17.8255,202
17.8298,203
17.8298,201
17.8298,196
17.8298,192
17.8298,191
17.8416,193
17.8436,197
17.8455,201
17.8476,204
17.8496,202
17.8516,198
17.8516,193
17.8516,190
17.8573,191
17.8573,196
17.8573,200
17.8573,203
17.8573,203
17.8573,199
17.8573,195
17.8573,191
17.8734,191
17.875,194
17.8775,199
17.8775,203
17.8775,203
17.8775,201
17.8775,196
17.8775,192
17.8895,191
17.8895,193
17.8895,197
17.8895,201
17.897,203
17.897,202
17.897,198
17.897,193
17.9054,191
17.9062,191
17.9062,196
17.9062,200
17.9062,203
17.9062,203
17.9062,199
17.9062,195
17.9214,191
17.9236,191
17.9236,194
17.9236,199
17.9236,203
17.9304,203
17.9304,201
17.9304,196
17.9374,192
17.9399,191
17.942,193
17.9434,197
17.9453,202
17.947,203
17.949,202
17.951,198
17.9541,193
17.9552,191
17.9552,191
17.9552,196
17.9552,200
17.9552,203
17.9552,203
17.9552,199
17.9689,195
17.9689,191
17.9689,191
17.9689,194
17.9689,199
17.9689,203
17.9689,203
17.9689,201
17.9849,196
17.9878,192
17.9896,191
17.9916,193
17.9916,197
17.9916,202
17.9916,203
17.9916,202
18.001,198
18.001,193
18.001,191
18.001,191
18.001,196
18.001,200
18.001,203
18.001,203
18.0169,199
18.0192,195
18.0192,191
18.0192,191
18.0192,194
18.0192,199
18.0294,202
18.0322,203
18.0336,201
18.0357,196
18.0377,192
18.0396,191
18.0416,193
18.0436,197
18.0436,201
18.046,203
18.046,202
18.046,198
18.0535,194
18.0535,191
18.0535,191
18.0535,196
18.0535,200
18.0535,203
18.0535,203
18.0535,200
18.0695,195
18.0718,191
18.0738,191
18.0756,194
18.0756,199
18.0756,202
18.0756,203
18.0756,201
18.0857,196
18.0857,192
18.0857,191
18.0857,193
18.0857,197
18.0857,201
18.0857,203
18.0857,202
18.1016,198
18.1031,193
18.1056,191
18.1072,192
18.1096,196
18.1116,200
18.1116,203
18.1156,203
18.1176,199
18.1196,195
18.1216,191
18.1237,191
18.1257,194
18.1275,199
18.1275,202
18.132,203
18.1337,201
18.1337,197
18.1337,192
18.1337,191
18.1337,193
18.1337,197
18.1337,201
18.1337,203
18.1497,202
18.1497,198
18.1497,193
18.1497,191
18.1497,191
18.1497,196
18.1497,200
18.1497,203
18.1655,203
18.1678,199
18.1698,195
18.1716,191
18.1716,191
18.1716,194
18.1716,199
18.1716,202
18.1815,203
18.1815,201
18.1815,196
18.1815,192
18.1815,191
18.1815,193
18.1815,197
18.1815,201
18.1977,203
18.1977,202
18.1977,198
18.1977,193
18.1977,191
18.1977,191
18.1977,195
18.1977,200
18.2135,203
18.2156,203
18.2176,199
18.2196,195
18.2216,191
18.2237,191
18.2256,194
18.2276,199
18.2294,202
18.2322,203
18.2336,201
18.2356,197
18.2356,192
18.2356,191
18.2356,193
18.2356,198
18.2453,202
18.2477,204
18.2477,203
18.2477,199
18.2477,194
18.2477,192
18.2477,192
18.2477,195
18.2616,200
18.2616,202
18.2616,202
18.2616,199
18.2616,194
18.2616,191
18.2616,190
18.2616,193
18.2777,198
18.2777,201
18.2777,202
18.2777,201
18.2777,196
18.2777,193
18.2777,191
18.2777,193
18.2937,198
18.2937,202
18.2937,204
18.2937,203
18.2937,198
18.2937,194
18.2937,191
18.2937,191
18.3097,196
18.3112,200
18.3112,203
18.3112,203
18.3112,200
18.3112,195
18.3112,191
18.3112,191
18.3258,194
18.3258,199
18.3258,202
18.3258,203
18.3322,201
18.3322,197
18.3322,192
18.3322,191
18.3417,193
18.3431,197
18.3449,201
18.3472,204
18.3497,202
18.3497,198
18.3497,194
18.3497,191
18.3497,191
18.3578,196
18.3613,200
18.3633,203
18.3653,203
18.3653,200
18.3653,195
18.3653,191
18.3736,191
18.3757,194
18.3776,199
18.3776,202
18.3816,203
18.3816,201
18.3816,197
18.3816,192
18.3895,191
18.3895,193
18.3895,197
18.3895,201
18.3895,203
18.3895,202
18.3895,198
18.3895,193
18.4055,191
18.4055,191
18.4055,195
18.4055,200
18.4055,203
18.4055,203
18.4055,200
18.4055,195
18.4216,191
18.4216,191
18.4216,194
18.4216,199
18.4216,203
18.4216,204
18.4323,201
18.4323,196
18.4375,192
18.4398,191
18.4418,193
18.4436,197
18.4449,201
18.4449,204
18.4449,202
18.4449,198
18.4536,194
18.4536,191
18.4536,191
18.4536,196
18.4536,200
18.4536,203
18.4536,203
18.4536,200
18.4696,195
18.4709,191
18.4737,191
18.4757,194
18.4777,199
18.4777,203
18.4777,203
18.4777,201
18.4856,197
18.4856,192
18.4856,191
18.4856,193
18.4856,197
18.4856,201
18.4856,203
18.4856,202
18.5015,198
18.5015,194
18.5055,191
18.5074,191
18.5096,195
18.5096,200
18.5096,203
18.5096,203
18.5173,199
18.5173,195
18.5173,191
18.5173,191
18.5173,194
18.5173,198
18.5173,202
18.5173,203
18.5327,201
18.5348,196
18.5348,192
18.5348,190
18.5348,192
18.5348,197
18.5348,201
18.5462,203
18.5496,202
18.5517,198
18.5536,193
18.5556,191
18.5572,191
18.5586,195
18.5586,200
18.5625,203
18.5625,203
18.5625,199
18.5701,195
18.5701,191
18.5701,191
18.5701,194
18.5701,199
18.5701,202
18.5701,203
18.5701,201
18.5858,196
18.5858,192
18.5858,191
18.5858,192
18.5858,197
18.5858,201
18.5858,203
18.5858,202
18.6019,198
18.6032,193
18.6057,191
18.6073,191
18.6073,196
18.6073,200
18.6133,203
18.6133,203
18.6177,200
18.6177,195
18.6177,191
18.6177,191
18.6177,194
18.6177,199
18.6177,202
18.6177,203
18.633,201
18.635,197
18.635,192
18.635,191
18.635,193
18.635,197
18.635,201
18.635,203
18.649,202
18.649,198
18.6537,194
18.6553,191
18.6553,192
18.6553,195
18.6553,200
18.6553,203
18.6651,203
18.6677,200
18.6697,195
18.6716,191
18.6737,191
18.6737,194
18.6737,199
18.6737,202
18.6813,203
18.6837,201
18.6837,197
18.6871,192
18.6896,191
18.6916,192
18.6936,197
18.6948,201
18.6973,203
18.6973,202
18.6973,198
18.7032,193
18.7045,191
18.7065,191
18.7085,195
18.7125,200
18.7125,203
18.7125,203
18.7177,200
18.7177,195
18.7177,191
18.7177,191
18.7177,194
18.7177,199
18.7285,202
18.7285,203
18.7333,201
18.7333,197
18.7333,192
18.7333,191
18.7333,192
18.7443,197
18.7443,201
18.7443,203
18.7443,202
18.7443,198
18.7443,194
18.7443,191
18.7443,191
18.7601,195
18.7601,200
18.7601,203
18.7601,203
18.7601,199
18.7601,195
18.7601,192
18.7601,191
18.776,194
18.776,198
18.776,202
18.776,203
18.776,201
18.776,196
18.776,192
18.776,190
18.7919,192
18.7919,197
18.7919,201
18.7919,204
18.7919,202
18.7919,198
18.7919,194
18.7919,191
18.8077,191
18.8077,195
18.8077,200
18.8077,203
18.8077,203
18.8077,200
18.8077,195
18.8077,191
18.8237,191
18.8237,194
18.8237,199
18.8237,202
18.8237,203
18.8338,201
18.8338,197
18.8338,192
18.8397,191
18.8397,192
18.8397,197
18.8397,202
18.8397,203
18.8397,203
18.8397,198
18.8397,194
18.8557,191
18.8557,191
18.8557,195
18.8557,200
18.8557,203
18.8557,203
18.8557,200
18.8557,195
18.8717,191
18.8717,191
18.8717,194
18.8717,199
18.8717,202
18.8717,203
18.8717,201
18.8717,196
18.8878,192
18.8893,191
18.8921,192
18.8938,197
18.8955,201
18.8972,203
18.8991,202
18.8991,198
18.9036,194
18.9036,191
18.9036,191
18.9036,195
18.9184,200
18.9194,203
18.9194,203
18.9214,200
18.9234,195
18.9234,191
18.9254,191
18.9274,194
18.9274,199
18.9294,202
18.9294,203
18.9322,201
18.9352,197
18.9386,192
18.9386,191
18.9386,192
18.9386,197
18.9386,201
18.9386,203
18.9386,202
18.9511,198
18.9511,194
18.9511,191
18.9511,191
18.9511,195
18.9511,200
18.9511,203
18.9511,203
18.9671,200
18.9671,195
18.9671,192
18.9671,191
18.9671,194
18.9671,199
18.9671,203
18.9671,204
18.9829,202
18.985,198
18.987,193
18.989,192
18.989,193
18.989,198
18.989,202
18.989,204
18.9989,202
19.001,197
19.003,193
19.005,190
19.005,191
19.005,195
19.005,199
19.005,202
19.0149,202
19.0149,198
19.0149,194
19.0149,191
19.0149,191
19.0149,194
19.0149,199
19.0149,203
19.0309,204
19.0309,202
19.0342,197
19.0342,193
19.0342,191
19.0342,193
19.0342,197
19.0342,201
19.0481,203
19.0491,202
19.0516,198
19.0516,194
19.0516,191
19.0516,191
19.0516,195
19.0516,200
19.0629,203
19.0645,203
19.0676,200
19.0697,195
19.0717,191
19.0717,191
19.0717,194
19.0717,199
19.0794,202
19.0817,203
19.0836,201
19.0857,197
19.0876,193
19.0896,191
19.0916,192
19.0936,197
19.0936,201
19.096,203
19.096,203
19.096,198
19.1037,194
19.1051,191
19.1058,191
19.1058,195
19.1058,200
19.1058,203
19.1058,203
19.1058,200
19.1196,195
19.1196,191
19.1196,191
19.1196,194
19.1196,199
19.1196,202
19.1196,203
