timestamp,ecg_value
0.0,0
0.0,0
0.0,0
0.0,0
0.0,0
0.0,0
0.0,0
0.0,0
0.0,0
0.0,0
0.0,0
0.0,0
0.0,0
0.0016,0
0.0016,0
0.0016,0
0.0016,0
0.0016,0
0.0016,0
0.0016,0
0.0016,0
0.0016,0
0.0016,0
0.0016,0
0.0016,0
0.0016,0
0.0016,0
0.0016,0
0.0016,0
0.0016,0
0.0016,0
0.0016,0
0.0016,0
0.0016,0
0.0016,0
0.0016,0
0.0016,0
0.0033,0
0.0033,0
0.0033,0
0.0033,0
0.0033,0
0.0033,0
0.0033,0
0.0033,0
0.0033,0
0.0033,0
0.0033,0
0.0033,0
0.0033,0
0.0033,0
0.0033,0
0.0033,0
0.0033,0
0.0033,0
0.0033,0
0.0033,0
0.0033,0
0.0033,0
0.0051,0
0.0051,0
0.0051,0
0.0051,0
0.0051,0
0.0051,0
0.0051,0
0.0051,0
0.0051,0
0.0051,0
0.0051,0
0.0051,0
0.0051,0
0.0051,0
0.0051,0
0.0051,0
0.0051,0
0.0051,0
0.0051,0
0.0051,0
0.0051,0
0.0051,0
0.0051,0
0.0051,0
0.0067,0
0.0067,0
0.0067,0
0.0067,0
0.0067,0
0.0067,0
0.0067,0
0.0067,0
0.0067,0
0.0067,0
0.0067,0
0.0067,0
0.0067,0
0.0067,0
0.0067,0
0.0067,0
0.0067,0
0.0067,0
0.0067,0
0.0067,0
0.0067,0
0.0067,0
0.0067,0
0.0067,0
0.0083,0
0.0083,0
0.0083,94
0.0083,235
0.0083,407
0.0083,590
0.0083,691
0.0083,691
0.0083,691
0.0083,691
0.0083,692
0.0083,692
0.0083,692
0.0083,692
0.0083,691
0.01,692
0.01,692
0.01,692
0.01,692
0.01,692
0.01,693
0.01,692
0.01,692
0.01,692
0.01,692
0.01,692
0.01,692
0.01,692
0.01,692
0.0115,692
0.0115,692
0.0115,692
0.0115,692
0.0115,692
0.0115,692
0.0115,692
0.0115,693
0.0115,693
0.0115,692
0.0115,693
0.0115,692
0.0115,692
0.0115,693
0.0131,692
0.0131,692
0.0131,692
0.0131,692
0.0131,692
0.0131,692
0.0131,692
0.0131,692
0.0131,692
0.0131,692
0.0131,692
0.0131,692
0.0131,692
0.0131,692
0.0147,692
0.0147,692
0.0147,692
0.0147,692
0.0147,692
0.0147,692
0.0147,693
0.0147,692
0.0147,693
0.0147,693
0.0147,693
0.0147,692
0.0147,693
0.0147,693
0.0163,692
0.0163,693
0.0163,692
0.0163,692
0.0163,692
0.0163,692
0.0163,693
0.0163,693
0.0163,692
0.0163,693
0.0163,692
0.0163,692
0.0163,692
0.0179,692
0.0179,692
0.0179,692
0.0179,693
0.0179,691
0.0179,692
0.0179,692
0.0179,692
0.0179,692
0.0179,692
0.0179,692
0.0179,692
0.0179,692
0.0179,692
0.0195,693
0.0195,692
0.0195,692
0.0195,692
0.0195,692
0.0195,692
0.0211,692
0.0214,692
0.0214,692
0.0214,692
0.0214,692
0.0214,692
0.0214,692
0.0214,692
0.0214,692
0.0214,692
0.0227,693
0.0227,692
0.0231,693
0.0231,692
0.0231,693
0.0238,692
0.0238,693
0.0238,692
0.0245,692
0.0245,692
0.025,692
0.025,692
0.025,692
0.025,692
0.0263,692
0.0263,692
0.0263,692
0.0263,691
0.0263,692
0.0263,692
0.0263,692
0.0263,693
0.0263,692
0.0263,692
0.0263,692
0.0263,692
0.0289,692
0.0303,693
0.0313,691
0.0318,692
0.0318,692
0.0318,691
0.0328,692
0.0332,692
0.0332,691
0.0332,692
0.0332,692
0.0332,692
0.0332,692
0.0342,692
0.0342,692
0.0342,692
0.0342,692
0.0342,692
0.0342,692
0.0342,692
0.0342,692
0.0342,692
0.0359,692
0.0359,692
0.0359,692
0.0359,692
0.0359,692
0.0359,692
0.0359,692
0.0374,692
0.0374,692
0.0374,692
0.0374,692
0.0374,692
0.0374,692
0.0374,692
0.0374,692
0.0374,692
0.0389,692
0.0389,692
0.0389,692
0.0389,692
0.0389,692
0.0389,692
0.0406,692
0.0406,692
0.0406,693
0.0406,692
0.0406,692
0.0424,692
0.0424,692
0.0424,693
0.0424,692
0.0424,693
0.0424,692
0.0424,693
0.0441,692
0.0441,692
0.0441,692
0.0441,692
0.0441,692
0.0441,692
0.0441,692
0.0441,693
0.0441,692
0.0441,693
0.0441,693
0.0441,692
0.0441,693
0.0441,692
0.0459,692
0.0459,692
0.0459,692
0.0459,691
0.0459,692
0.0459,692
0.0459,692
0.0459,692
0.0459,692
0.0459,692
0.0459,692
0.0459,692
0.0459,692
0.0459,692
0.0476,692
0.0476,692
0.0476,692
0.0476,692
0.0476,692
0.0476,692
0.0476,692
0.0476,692
0.0476,692
0.0476,692
0.0476,692
0.0476,692
0.0476,692
0.0476,692
0.0476,692
0.0476,692
0.0493,692
0.0493,692
0.0493,692
0.0493,692
0.0493,692
0.0493,693
0.0493,693
0.0493,692
0.0493,693
0.0493,692
0.0493,693
0.0493,692
0.0493,692
0.0493,692
0.0493,692
0.0493,691
0.0511,692
0.0511,692
0.0511,692
0.0511,692
0.0511,692
0.0511,692
0.0511,693
0.0511,692
0.0511,692
0.0511,691
0.0511,692
0.0511,692
0.0511,692
0.0511,692
0.0511,692
0.0511,692
0.0529,692
0.0529,692
0.0529,692
0.0529,691
0.0529,692
0.0529,692
0.0529,692
0.0529,692
0.0529,692
0.0529,692
0.0529,692
0.0529,691
0.0546,692
0.0546,692
0.0546,692
0.0559,692
0.0562,691
0.0562,692
0.0572,691
0.0572,692
0.058,691
0.0586,691
0.0586,691
0.0586,690
0.0586,691
0.0586,690
0.0586,691
0.0599,690
0.0599,688
0.0599,681
0.0599,627
0.0599,556
0.0599,507
0.0599,504
0.0599,542
0.0599,594
0.0599,635
0.0616,655
0.0616,650
0.0616,626
0.0616,603
0.0622,602
0.0622,626
0.0622,661
0.0622,680
0.0622,668
0.0622,622
0.0633,559
0.0633,507
0.0633,488
0.0633,509
0.0633,555
0.0633,598
0.0633,611
0.0633,584
0.0633,529
0.0633,469
0.0633,436
0.0633,440
0.0633,477
0.0633,522
0.0649,544
0.0649,528
0.0649,478
0.0649,417
0.0649,373
0.0649,364
0.0649,394
0.0649,440
0.0649,472
0.0649,470
0.0649,429
0.0649,368
0.0666,313
0.0666,292
0.0666,310
0.0666,354
0.0666,396
0.0666,405
0.0666,375
0.0666,317
0.0666,257
0.0666,224
0.0666,229
0.0666,267
0.0666,313
0.0666,339
0.0683,323
0.0683,274
0.0683,214
0.0683,170
0.0683,162
0.0683,192
0.0683,240
0.0683,275
0.0683,274
0.0683,236
0.0683,178
0.0683,126
0.0683,107
0.0701,128
0.0711,175
0.0711,221
0.0718,236
0.0718,211
0.0718,158
0.0718,102
0.0718,70
0.0718,78
0.0718,119
0.0718,169
0.0737,196
0.0737,185
0.0737,138
0.0737,80
0.0737,37
0.0737,31
0.0737,64
0.0737,115
0.0737,153
0.0737,156
0.0737,120
0.0737,62
0.0737,10
0.0737,0
0.0737,13
0.0754,57
0.0754,101
0.0754,116
0.0754,93
0.0754,41
0.0754,0
0.0754,0
0.0754,0
0.0754,10
0.0754,44
0.0754,65
0.0754,55
0.0754,13
0.0754,0
0.0754,0
0.0754,0
0.0771,0
0.0771,6
0.0771,24
0.0771,23
0.0771,0
0.0771,0
0.0771,0
0.0771,0
0.0771,0
0.0771,0
0.0771,4
0.0771,10
0.0771,0
0.0771,0
0.0786,0
0.0786,0
0.0786,0
0.0786,0
0.0786,21
0.0786,45
0.0786,44
0.0786,15
0.0786,0
0.0786,0
0.0786,0
0.0786,7
0.0786,45
0.0786,82
0.0803,90
0.0803,63
0.0803,16
0.0803,0
0.0803,0
0.0803,5
0.0803,45
0.0803,89
0.0803,109
0.0803,91
0.0803,46
0.082,0
0.082,0
0.082,0
0.082,32
0.082,79
0.082,108
0.082,101
0.082,61
0.082,8
0.082,0
0.082,0
0.0838,16
0.0838,59
0.0838,98
0.0838,105
0.0838,75
0.0838,24
0.0838,0
0.0838,0
0.0838,2
0.0855,42
0.0855,85
0.0855,104
0.0855,87
0.0855,41
0.0855,0
0.0855,0
0.0855,0
0.0855,24
0.0855,69
0.0873,98
0.0873,93
0.0873,54
0.0873,3
0.0873,0
0.0873,0
0.0873,13
0.0873,55
0.0873,92
0.0873,99
0.0873,70
0.0891,21
0.0891,0
0.0891,0
0.0891,0
0.0891,38
0.0891,80
0.0891,100
0.0891,84
0.0891,39
0.0891,0
0.0891,0
0.0891,0
0.0891,26
0.0909,70
0.0909,100
0.0909,94
0.0909,56
0.0909,4
0.0909,0
0.0909,0
0.0909,13
0.0909,55
0.0909,92
0.0909,99
0.0909,71
0.0926,23
0.0926,0
0.0926,0
0.0926,6
0.0926,46
0.0926,91
0.0926,112
0.0926,96
0.0926,51
0.0926,1
0.0926,0
0.0926,0
0.0926,37
0.0926,86
0.0943,118
0.0943,112
0.0943,74
0.0943,21
0.0943,0
0.0943,0
0.0943,25
0.0943,74
0.0943,116
0.0943,126
0.0943,98
0.0943,48
0.0943,2
0.096,0
0.096,16
0.096,64
0.096,114
0.096,135
0.096,118
0.096,72
0.096,21
0.096,0
0.096,7
0.096,49
0.0978,101
0.0978,134
0.0978,129
0.0978,89
0.0978,34
0.0978,0
0.0978,0
0.0978,30
0.0978,81
0.0978,122
0.0978,130
0.0994,100
0.0994,48
0.0994,1
0.0994,0
0.0994,13
0.0994,57
0.0994,104
0.0994,124
0.0994,105
0.0994,58
0.0994,6
0.0994,0
0.0994,0
0.0994,40
0.0994,92
0.0994,126
0.1012,124
0.1012,87
0.1012,38
0.1012,3
0.1012,3
0.1012,41
0.1012,97
0.1012,143
0.1012,152
0.1012,124
0.1012,74
0.1012,28
0.1012,13
0.1012,37
0.1012,89
0.1012,141
0.1012,164
0.1028,149
0.1028,105
0.1028,57
0.1028,33
0.1028,47
0.1028,93
0.1028,147
0.1028,181
0.1028,175
0.1028,135
0.1028,82
0.1028,42
0.1028,39
0.1028,74
0.1028,127
0.1045,170
0.1045,179
0.1045,150
0.1045,99
0.1045,53
0.1045,37
0.1045,59
0.1045,109
0.1045,160
0.1045,182
0.1045,163
0.1045,111
0.1045,49
0.1045,7
0.1045,0
0.1045,25
0.1061,54
0.1061,62
0.1061,30
0.1061,0
0.1061,0
0.1061,0
0.1061,0
0.1061,0
0.1061,0
0.1061,0
0.1061,0
0.1061,0
0.1061,0
0.1061,5
0.1061,40
0.1061,99
0.1061,170
0.1061,227
0.1061,244
0.1061,215
0.1078,155
0.1078,93
0.1078,57
0.1078,63
0.1078,108
0.1078,164
0.1078,202
0.1078,202
0.1078,166
0.1078,116
0.1078,79
0.1078,78
0.1078,113
0.1078,167
0.1078,210
0.1094,219
0.1094,190
0.1094,139
0.1094,92
0.1094,76
0.1094,99
0.1094,149
0.1094,199
0.1094,223
0.1094,206
0.1094,161
0.1094,110
0.1094,82
0.1094,92
0.1094,135
0.111,189
0.111,224
0.111,219
0.111,181
0.111,129
0.111,91
0.111,88
0.111,122
0.111,177
0.111,222
0.111,232
0.111,205
0.111,154
0.111,108
0.111,91
0.1126,113
0.1126,163
0.1126,214
0.1126,236
0.1126,219
0.1126,173
0.1126,122
0.1126,93
0.1126,103
0.1126,146
0.1126,199
0.1126,233
0.1126,229
0.1126,191
0.1126,138
0.1142,100
0.1142,97
0.1142,131
0.1142,185
0.1142,228
0.1142,237
0.1142,208
0.1142,156
0.1142,109
0.1142,92
0.1142,114
0.1142,164
0.1142,214
0.1142,236
0.1142,218
0.1158,171
0.1158,120
0.1158,91
0.1158,100
0.1158,143
0.1158,196
0.1158,230
0.1158,226
0.1158,187
0.1158,134
0.1158,95
0.1158,91
0.1158,124
0.1158,178
0.1158,222
0.1174,232
0.1174,204
0.1174,154
0.1174,107
0.1174,89
0.1174,111
0.1174,160
0.1174,210
0.1174,233
0.1174,217
0.1174,171
0.1174,121
0.1174,94
0.1174,105
0.1174,151
0.119,207
0.119,245
0.119,244
0.119,210
0.119,162
0.119,127
0.119,128
0.119,167
0.119,224
0.119,272
0.119,288
0.119,264
0.119,218
0.1207,176
0.1207,163
0.1207,190
0.1207,243
0.1207,296
0.1207,322
0.1207,308
0.1207,265
0.1207,216
0.1207,190
0.1207,203
0.1207,248
0.1207,303
0.1223,341
0.1223,338
0.1223,300
0.1223,249
0.1223,212
0.1223,209
0.1223,243
0.1223,297
0.1223,342
0.1223,353
0.1223,323
0.1223,274
0.1223,228
0.1223,212
0.1223,236
0.124,287
0.124,339
0.124,363
0.124,347
0.124,300
0.124,249
0.124,221
0.124,229
0.124,273
0.124,326
0.124,362
0.124,357
0.124,316
0.124,263
0.1256,224
0.1256,220
0.1256,253
0.1256,305
0.1256,351
0.1256,360
0.1256,331
0.1256,280
0.1256,234
0.1256,217
0.1256,238
0.1256,287
0.1256,338
0.1256,361
0.1272,343
0.1272,297
0.1272,246
0.1272,219
0.1272,229
0.1272,272
0.1272,326
0.1272,362
0.1272,358
0.1272,317
0.1272,265
0.1272,226
0.1272,221
0.1272,254
0.1288,307
0.1288,352
0.1288,363
0.1288,333
0.1288,281
0.1288,235
0.1288,219
0.1288,241
0.1288,291
0.1288,343
0.1288,367
0.1288,350
0.1288,304
0.1288,253
0.1288,225
0.1304,233
0.1304,276
0.1304,329
0.1304,365
0.1304,361
0.1304,322
0.1304,271
0.1304,233
0.1304,229
0.1304,263
0.1304,316
0.1304,361
0.1304,372
0.1304,343
0.132,292
0.132,246
0.132,229
0.132,251
0.132,300
0.132,352
0.132,376
0.132,360
0.132,313
0.132,263
0.132,236
0.132,246
0.132,290
0.132,346
0.132,382
0.1336,380
0.1336,343
0.1336,290
0.1336,253
0.1336,249
0.1336,281
0.1336,333
0.1336,378
0.1336,388
0.1336,360
0.1336,308
0.1336,261
0.1336,243
0.1336,264
0.1352,313
0.1352,365
0.1352,389
0.1352,373
0.1352,325
0.1352,273
0.1352,242
0.1352,248
0.1352,288
0.1352,340
0.1352,376
0.1352,373
0.1352,335
0.1352,284
0.1352,248
0.1369,245
0.1369,279
0.1369,334
0.1369,379
0.1369,390
0.1369,363
0.1369,311
0.1369,266
0.1369,249
0.1369,271
0.1369,321
0.1369,374
0.1369,397
0.1369,381
0.1386,336
0.1386,286
0.1386,259
0.1386,270
0.1386,315
0.1386,372
0.1386,408
0.1386,407
0.1386,371
0.1386,317
0.1386,280
0.1386,275
0.1386,308
0.1386,362
0.1386,405
0.1402,415
0.1402,387
0.1402,336
0.1402,289
0.1402,272
0.1402,293
0.1402,343
0.1402,394
0.1402,417
0.1402,403
0.1402,357
0.1402,305
0.1402,276
0.1402,280
0.1418,316
0.1418,360
0.1418,381
0.1418,362
0.1418,304
0.1418,231
0.1418,167
0.1418,135
0.1434,142
0.1451,176
0.1467,215
0.1484,229
0.1501,212
0.153,180
0.1548,153
0.157,157
0.1594,207
0.1612,297
0.1632,394
0.1656,450
0.1678,452
0.1691,411
0.1704,353
0.1722,310
0.1756,302
0.177,330
0.1787,374
0.1805,403
0.1822,399
0.1855,363
0.1872,313
0.1889,277
0.1906,275
0.1923,310
0.1941,365
0.1974,410
0.1991,422
0.2008,396
0.2025,346
0.2056,299
0.2073,281
0.2091,302
0.2108,351
0.2124,401
0.2141,424
0.2174,409
0.219,365
0.2205,313
0.2224,285
0.2241,292
0.2275,334
0.2288,387
0.2309,421
0.232,418
0.2355,382
0.2372,328
0.2391,290
0.2409,285
0.2427,317
0.2449,371
0.2477,414
0.2494,425
0.2512,399
0.2531,349
0.2548,302
0.2566,284
0.2584,305
0.2602,354
0.2636,404
0.2655,428
0.2673,413
0.269,369
0.2707,317
0.2724,288
0.2742,296
0.2774,338
0.2793,390
0.2815,425
0.2826,421
0.2844,384
0.2862,330
0.2897,290
0.2915,283
0.2935,314
0.2946,366
0.2964,408
0.2982,418
0.3016,391
0.3037,339
0.3048,291
0.3069,272
0.3079,291
0.3114,339
0.3131,389
0.315,413
0.3167,397
0.3185,351
0.3203,298
0.3237,266
0.3254,273
0.3275,312
0.3286,365
0.3304,399
0.3322,396
0.3356,358
0.3373,303
0.339,263
0.3408,255
0.3426,284
0.3444,334
0.3462,378
0.3497,388
0.3514,361
0.3535,308
0.3546,260
0.3564,241
0.3582,259
0.3619,305
0.3636,355
0.3653,378
0.3675,362
0.3686,315
0.3705,263
0.3722,233
0.3757,240
0.3774,281
0.3795,334
0.3807,370
0.3824,370
0.3842,332
0.3877,282
0.3894,244
0.3913,241
0.3935,275
0.3947,330
0.3965,380
0.3984,396
0.4001,374
0.4035,327
0.4051,283
0.4069,269
0.4087,292
0.4105,344
0.4123,399
0.4141,427
0.4175,417
0.4196,376
0.4207,328
0.4224,301
0.4242,311
0.4275,355
0.4292,410
0.4314,449
0.4326,449
0.4343,416
0.4361,366
0.4395,326
0.4413,322
0.4431,356
0.445,408
0.4468,452
0.4482,464
0.45,439
0.4535,390
0.4552,343
0.4571,324
0.4588,344
0.4606,392
0.4631,441
0.4655,465
0.4673,452
0.4695,408
0.4705,358
0.4722,327
0.4756,335
0.4774,376
0.4787,428
0.4806,462
0.4824,461
0.4841,425
0.4874,374
0.4893,333
0.4911,326
0.4931,358
0.4949,409
0.4967,453
0.4985,464
0.5002,438
0.5037,388
0.5054,340
0.5071,320
0.509,340
0.5108,388
0.5125,438
0.5143,464
0.516,450
0.5194,407
0.5211,356
0.523,325
0.5248,330
0.5265,372
0.5283,423
0.5301,458
0.5335,458
0.5353,421
0.5371,370
0.5388,328
0.5405,321
0.5423,352
0.5441,403
0.5475,446
0.5492,458
0.5511,434
0.5528,384
0.5546,335
0.5564,315
0.5597,333
0.5614,381
0.5631,431
0.5648,454
0.5665,441
0.5683,398
0.5701,346
0.5736,315
0.5754,321
0.5775,363
0.5786,415
0.5804,452
0.5822,452
0.5841,417
0.5859,367
0.5894,325
0.5916,319
0.5927,351
0.5945,403
0.5964,447
0.5983,460
0.6001,435
0.6036,385
0.6051,338
0.607,317
0.6088,335
0.6106,383
0.6124,433
0.6141,457
0.6176,443
0.6193,400
0.6215,349
0.6225,317
0.6243,323
0.6262,364
0.6297,417
0.6314,452
0.6335,452
0.6346,415
0.6364,364
0.6382,322
0.6416,314
0.6433,346
0.6452,398
0.6471,442
0.6488,454
0.6506,428
0.6524,378
0.6541,328
0.6574,306
0.6592,323
0.6611,369
0.6629,418
0.6647,442
0.6665,429
0.6683,385
0.6699,333
0.6734,302
0.6752,308
0.6771,348
0.6788,399
0.6807,433
0.6825,431
0.6844,393
0.6861,337
0.6894,293
0.6912,283
0.6931,311
0.695,364
0.6968,409
0.6995,424
0.6999,401
0.7033,355
0.7054,308
0.7065,288
0.7082,308
0.71,356
0.7119,407
0.7154,433
0.7171,421
0.7185,379
0.7206,327
0.7234,296
0.725,301
0.7268,340
0.7286,394
0.7304,431
0.7335,432
0.7353,399
0.737,351
0.7388,311
0.7405,305
0.7423,337
0.744,390
0.7473,436
0.7486,448
0.7511,424
0.7533,375
0.7555,327
0.7574,307
0.7594,325
0.7614,373
0.7634,422
0.7651,447
0.7669,434
0.7686,391
0.7703,339
0.7737,307
0.7751,312
0.777,352
0.7788,404
0.781,440
0.7837,440
0.7852,404
0.7869,350
0.7886,301
0.7903,283
0.7936,299
0.795,334
0.7971,362
0.7996,353
0.8014,305
0.8031,231
0.8049,160
0.8067,122
0.8085,133
0.8102,183
0.8136,245
0.8153,288
0.817,296
0.8187,273
0.8204,247
0.8234,249
0.8249,294
0.8277,367
0.8293,438
0.8304,479
0.8321,475
0.8354,428
0.8367,362
0.8384,307
0.8401,290
0.8433,313
0.8451,365
0.8467,411
0.8483,427
0.8518,406
0.8535,361
0.8553,314
0.8576,295
0.8587,313
0.8606,361
0.863,413
0.8642,439
0.8677,427
0.8695,385
0.8713,333
0.8736,301
0.8747,305
0.8766,344
0.8784,396
0.8802,433
0.882,433
0.8854,398
0.8871,347
0.8888,304
0.8906,295
0.8921,323
0.8954,375
0.8972,419
0.8991,433
0.9008,409
0.9026,359
0.9044,310
0.9062,290
0.9081,307
0.9099,354
0.9135,404
0.9153,429
0.9171,417
0.919,375
0.9207,320
0.9224,288
0.9243,292
0.9261,329
0.9294,382
0.9312,419
0.9331,420
0.9348,386
0.9366,333
0.9385,291
0.9403,282
0.9421,309
0.9455,361
0.9472,405
0.9491,419
0.9508,393
0.9526,343
0.9552,295
0.9574,274
0.9586,289
0.9603,336
0.9636,388
0.9653,414
0.967,402
0.9687,358
0.9706,304
0.9735,271
0.9747,272
0.9765,309
0.9782,362
0.9816,398
0.9828,399
0.9846,364
0.9877,311
0.9894,269
0.9915,259
0.9927,285
0.9944,336
0.9962,383
0.9981,396
1.0017,371
1.003,320
1.0046,270
1.0064,247
1.0082,262
1.0101,307
1.0136,358
1.0153,384
1.0172,371
1.0189,326
1.0207,273
1.0224,240
1.0242,242
1.0278,279
1.0295,332
1.0313,370
1.0336,371
1.0347,335
1.0366,282
1.0385,239
1.0403,229
1.0432,257
1.0454,308
1.0475,356
1.0493,373
1.0505,351
1.0522,303
1.0556,258
1.0574,238
1.0595,256
1.0607,304
1.0631,361
1.0649,393
1.0662,385
1.0679,348
1.0714,300
1.073,271
1.0748,278
1.0766,318
1.0784,376
1.0815,417
1.0833,422
1.085,392
1.0868,343
1.0885,303
1.0903,296
1.0921,327
1.0956,381
1.0973,427
1.0991,445
1.1008,424
1.1026,378
1.1045,330
1.1062,310
1.108,327
1.1116,375
1.1134,426
1.1152,454
1.1171,445
1.119,405
1.1207,355
1.1224,323
1.1242,326
1.126,365
1.1295,417
1.1313,455
1.1335,458
1.1346,424
1.1364,374
1.1383,331
1.14,321
1.1434,349
1.1451,400
1.1475,445
1.1495,460
1.1513,437
1.1533,391
1.1551,343
1.1574,320
1.1585,336
1.1611,383
1.1634,432
1.1645,459
1.1662,448
1.168,406
1.1715,355
1.1732,320
1.1756,323
1.1774,361
1.1792,413
1.1816,451
1.1833,454
1.1855,422
1.1867,371
1.1882,327
1.1899,316
1.1932,344
1.195,394
1.1967,438
1.1983,455
1.2012,433
1.2028,386
1.2045,337
1.2062,315
1.2079,330
1.2114,377
1.2131,428
1.2149,455
1.2167,445
1.2184,404
1.2202,353
1.2219,318
1.2255,320
1.2272,359
1.2289,411
1.2304,449
1.2321,452
1.2355,420
1.2375,369
1.2386,326
1.2404,315
1.2422,343
1.2441,394
1.2459,439
1.2496,455
1.2513,433
1.2536,386
1.2549,337
1.2566,313
1.2584,328
1.2602,374
1.2635,424
1.2652,451
1.2671,442
1.269,400
1.2707,349
1.2725,314
1.2743,316
1.2761,353
1.2794,406
1.2812,444
1.2831,447
1.2849,415
1.2867,365
1.2885,321
1.2903,311
1.2922,338
1.2956,390
1.2973,436
1.2992,453
1.3011,431
1.3029,385
1.3047,336
1.3066,312
1.3085,327
1.3104,374
1.3123,425
1.3154,454
1.3182,446
1.3192,405
1.3216,354
1.3226,319
1.3247,319
1.3274,357
1.3291,408
1.3312,446
1.3323,448
1.3355,415
1.3375,364
1.3386,318
1.3403,306
1.3421,333
1.3421,385
1.3421,431
1.3487,447
1.3487,424
1.3542,375
1.355,323
1.3565,297
1.3598,308
1.3617,351
1.3627,402
1.3643,430
1.366,421
1.3695,382
1.3714,331
1.3728,297
1.3744,300
1.3761,338
1.3794,392
1.3811,432
1.3828,437
1.3845,405
1.3863,354
1.3892,310
1.3914,299
1.3931,326
1.3944,378
1.3961,425
1.3994,442
1.4011,422
1.4027,377
1.4056,329
1.4072,307
1.4086,323
1.4103,371
1.412,423
1.4155,452
1.4172,444
1.4189,403
1.4213,351
1.4226,316
1.4256,317
1.4274,355
1.429,407
1.4306,445
1.4323,449
1.4339,417
1.4372,366
1.4389,320
1.4406,308
1.4424,333
1.4441,383
1.4473,430
1.449,448
1.4507,427
1.4524,379
1.454,327
1.4574,300
1.4591,308
1.4609,342
1.4626,380
1.4643,393
1.4661,366
1.4694,302
1.4711,228
1.473,169
1.4747,146
1.4764,164
1.4781,211
1.4814,255
1.4832,271
1.485,256
1.4867,226
1.4879,203
1.4913,214
1.493,275
1.4947,370
1.4974,453
1.4991,491
1.5009,477
1.5025,423
1.5042,361
1.5059,319
1.5093,318
1.5111,353
1.513,399
1.5147,425
1.5161,417
1.5194,378
1.5211,329
1.523,296
1.5248,298
1.5265,336
1.5284,391
1.5314,431
1.5331,437
1.5349,405
1.5367,354
1.5384,308
1.5402,296
1.5419,321
1.5454,372
1.5471,419
1.5488,436
1.5506,414
1.5524,367
1.5541,316
1.5574,291
1.5591,305
1.561,350
1.5627,401
1.5644,431
1.5662,422
1.5696,381
1.5713,328
1.5731,293
1.575,292
1.5767,326
1.5785,378
1.5803,416
1.5836,420
1.5853,388
1.5871,336
1.5888,291
1.5905,278
1.5927,303
1.594,353
1.5974,400
1.599,417
1.6007,396
1.6023,347
1.6039,296
1.6073,271
1.609,284
1.6107,327
1.6123,380
1.6155,410
1.6171,402
1.6188,361
1.6206,307
1.6224,272
1.6253,271
1.6274,306
1.6285,359
1.6303,399
1.6321,404
1.6353,372
1.6368,319
1.6385,276
1.6402,262
1.6419,286
1.6454,336
1.6471,384
1.649,402
1.6507,380
1.6523,330
1.654,280
1.6574,253
1.6588,263
1.6605,304
1.6623,355
1.6656,384
1.6674,374
1.6695,331
1.6705,278
1.6723,242
1.6754,240
1.6772,274
1.6791,325
1.681,366
1.6828,370
1.6846,336
1.6864,284
1.6881,239
1.6914,223
1.693,246
1.6946,295
1.6962,343
1.6995,361
1.701,340
1.7027,291
1.7043,240
1.7074,213
1.709,223
1.7107,266
1.7124,318
1.7141,351
1.7174,344
1.7191,304
1.7215,254
1.7227,219
1.7245,220
1.7276,257
1.7293,313
1.7306,358
1.7323,369
1.734,341
1.7373,293
1.739,253
1.7408,244
1.7424,272
1.7441,326
1.7474,379
1.7491,402
1.7515,386
1.753,341
1.7548,294
1.7575,272
1.7599,286
1.7613,333
1.7625,389
1.7641,423
1.7672,419
1.769,382
1.771,332
1.7738,298
1.7757,298
1.7767,335
1.7785,389
1.7802,431
1.7837,438
1.7854,408
1.7874,359
1.7898,314
1.7914,301
1.7932,326
1.7948,377
1.7965,424
1.7982,443
1.7999,424
1.8035,377
1.8053,326
1.8071,301
1.8088,313
1.8115,358
1.8131,409
1.8153,439
1.817,433
1.8188,393
1.8206,342
1.8223,306
1.8241,305
1.8275,342
1.8296,395
1.8307,436
1.8324,442
1.8354,412
1.8371,361
1.8389,315
1.8406,301
1.8423,324
1.8455,374
1.8473,422
1.8489,440
1.8507,420
1.8524,374
1.8541,323
1.8573,297
1.8591,308
1.8609,353
1.8626,404
1.8642,436
1.8674,430
1.8692,391
1.8714,339
1.8736,302
1.8754,301
1.8771,336
1.8789,389
1.8806,430
1.8825,436
1.8842,405
1.8876,354
1.8887,307
1.8904,292
1.8921,315
1.8956,365
1.8973,413
1.8992,434
1.9011,417
1.903,371
1.9044,321
1.9073,296
1.909,307
1.9107,351
1.9123,404
1.9139,435
1.9172,428
1.9189,390
1.9205,337
1.9221,300
1.9254,298
1.927,333
1.9286,386
1.9304,428
1.9336,434
1.9353,403
1.937,352
1.9386,306
1.9404,291
1.9421,315
1.9456,366
1.9477,415
1.9487,435
1.9505,417
1.9523,370
1.9541,318
1.9574,292
1.9592,303
1.9611,348
1.963,400
1.9642,431
1.9675,425
1.9692,386
1.971,334
1.9728,296
1.9745,294
1.9763,328
1.9793,382
1.9812,423
1.9831,430
1.9848,400
1.9866,350
1.9884,304
1.9902,289
1.9935,311
1.9953,362
1.9969,409
1.9982,428
1.9999,408
2.0031,361
2.0048,308
2.0065,280
2.0081,290
2.0115,332
2.0132,384
2.0149,416
2.0166,410
2.0184,371
2.0201,317
2.0218,279
2.0253,276
2.0269,308
2.0288,358
2.0307,396
2.0325,400
2.0344,369
2.0363,316
2.0381,272
2.0416,259
2.0434,283
2.0455,335
2.0466,388
2.0484,411
2.0502,396
2.0536,351
2.0553,301
2.0572,274
2.0591,283
2.0608,325
2.0624,379
2.0641,412
2.0674,409
2.0692,372
2.071,319
2.0727,285
2.0745,285
2.0763,320
2.0781,375
2.0815,419
2.0832,429
2.0851,402
2.0869,352
2.0886,306
2.0904,292
2.092,314
2.0937,365
2.0971,414
2.0988,434
2.1004,417
2.1021,371
2.1055,319
2.1066,292
2.1079,302
2.1113,344
2.113,396
2.1147,428
2.1164,424
2.1181,385
2.1214,332
2.1231,295
2.1249,291
2.1265,323
2.1282,374
2.1299,410
2.1331,408
2.1349,364
2.1365,296
2.1393,233
2.141,197
2.1427,196
2.1443,220
2.146,246
2.1492,250
2.1509,225
2.1525,181
2.1555,139
2.1573,126
2.1589,156
2.1601,220
2.1634,300
2.164,375
2.1673,417
2.169,417
2.1706,386
2.1734,354
2.1752,346
2.1769,367
2.1786,403
2.1803,430
2.182,426
2.1853,391
2.1876,337
2.1887,292
2.1899,279
2.1931,304
2.1947,358
2.1963,410
2.1979,433
2.2011,417
2.2027,371
2.2045,319
2.2063,291
2.2081,301
2.2114,345
2.2131,399
2.2148,431
2.2165,426
2.2182,388
2.2199,334
2.2234,295
2.2251,292
2.2268,325
2.2285,378
2.2302,420
2.2319,427
2.2354,397
2.2368,346
2.238,300
2.2413,284
2.243,307
2.2446,357
2.2463,406
2.2479,427
2.2512,410
2.2528,364
2.2544,312
2.2561,285
2.2594,295
2.2611,338
2.2628,390
2.2644,423
2.2675,419
2.2692,381
2.271,328
2.2727,290
2.2745,287
2.2762,320
2.2796,373
2.2813,414
2.283,423
2.2847,394
2.2865,342
2.2894,295
2.2911,278
2.2928,299
2.2945,347
2.2961,396
2.2995,416
2.3011,399
2.3028,352
2.304,301
2.3076,273
2.3098,282
2.3109,324
2.3128,376
2.3146,407
2.3165,402
2.3184,362
2.3216,307
2.3221,268
2.3255,263
2.3273,295
2.3296,348
2.3307,390
2.3325,397
2.3343,367
2.3361,313
2.3396,266
2.3416,248
2.3428,268
2.3446,316
2.3464,365
2.3482,385
2.3517,366
2.3536,316
2.3547,263
2.3564,234
2.3581,241
2.3615,282
2.3633,334
2.3649,368
2.3666,363
2.3684,322
2.3712,269
2.3725,229
2.3742,225
2.3775,256
2.3792,309
2.381,354
2.3828,364
2.3846,335
2.3863,284
2.388,239
2.3913,223
2.3931,245
2.395,296
2.3968,348
2.3986,372
2.4003,358
2.4036,314
2.4053,267
2.407,243
2.4086,256
2.4104,303
2.4122,363
2.414,402
2.4174,402
2.4192,368
2.421,317
2.4227,281
2.4246,280
2.4264,315
2.4282,372
2.4299,416
2.4333,428
2.4351,403
2.4369,355
2.4386,311
2.4403,297
2.4421,320
2.4454,371
2.4472,422
2.449,446
2.4507,430
2.4525,388
2.4542,338
2.4575,311
2.4592,321
2.4611,367
2.463,421
2.4648,454
2.4675,452
2.4691,414
2.471,362
2.472,322
2.4752,318
2.4765,353
2.4781,406
2.4814,450
2.483,461
2.4852,434
2.4867,385
2.4892,339
2.4913,322
2.4928,345
2.4954,393
2.497,442
2.4987,464
2.5003,447
2.502,401
2.5052,350
2.5069,320
2.5091,329
2.5109,372
2.5124,425
2.5139,459
2.5172,457
2.5188,420
2.5205,369
2.5234,329
2.5256,324
2.5266,357
2.5284,409
2.5301,451
2.5336,461
2.5354,433
2.537,383
2.5388,337
2.5405,319
2.5422,341
2.5457,391
2.5474,441
2.5486,463
2.5502,448
2.5536,404
2.5553,354
2.5574,323
2.5585,330
2.5602,372
2.5635,423
2.5648,456
2.5665,454
2.5681,417
2.5716,367
2.5734,327
2.5752,322
2.5765,354
2.5781,406
2.5815,449
2.5835,459
2.5845,432
2.5862,383
2.5898,336
2.5908,319
2.5925,341
2.5942,389
2.5959,438
2.5993,460
2.6009,445
2.6026,400
2.6043,349
2.606,317
2.6093,324
2.611,366
2.6127,417
2.6144,451
2.6161,449
2.6194,413
2.6211,363
2.6229,323
2.6246,318
2.6262,350
2.6294,401
2.6311,443
2.6327,451
2.6343,423
2.6375,374
2.6393,325
2.641,307
2.6426,328
2.6443,378
2.6459,427
2.6492,450
2.6508,436
2.6525,392
2.6555,341
2.6572,310
2.6588,317
2.6605,359
2.6622,411
2.6649,446
2.6666,444
2.6683,408
2.67,357
2.6735,315
2.6751,308
2.6769,338
2.6786,389
2.6803,431
2.682,441
2.6853,412
2.6869,362
2.6886,312
2.6903,293
2.692,312
2.6953,360
2.6971,410
2.6988,431
2.7005,414
2.7022,367
2.7056,312
2.7073,279
2.709,285
2.7107,324
2.7125,377
2.7142,413
2.7176,412
2.7187,377
2.7204,325
2.7221,288
2.7254,283
2.7268,316
2.7286,370
2.7304,415
2.7321,426
2.7354,401
2.7371,351
2.7388,303
2.7405,287
2.7423,307
2.7457,356
2.7474,407
2.749,434
2.7507,420
2.7531,378
2.7547,328
2.7565,300
2.7581,308
2.7614,351
2.7632,403
2.7653,437
2.7672,436
2.7691,399
2.7707,346
2.7725,305
2.7742,299
2.7759,330
2.7793,384
2.7807,428
2.7825,440
2.7842,415
2.786,365
2.7896,316
2.7907,296
2.7931,314
2.7953,363
2.7971,412
2.7994,435
2.8005,419
2.8021,371
2.8052,311
2.8068,270
2.8085,263
2.8102,285
2.8136,318
2.8156,331
2.8167,303
2.8198,239
2.8219,162
2.8236,102
2.8246,87
2.8263,119
2.8281,180
2.8315,244
2.8332,279
2.8354,279
2.8364,265
2.8382,264
2.8416,291
2.8432,343
2.8449,408
2.8467,461
2.8484,479
2.8501,454
2.8533,397
2.8546,332
2.8564,292
2.8582,293
2.86,331
2.8635,386
2.8655,425
2.8665,427
2.8682,393
2.8716,343
2.8733,303
2.875,296
2.8766,326
2.8782,378
2.8814,421
2.8831,433
2.8847,409
2.8868,360
2.8896,312
2.8916,294
2.8926,312
2.8943,360
2.896,410
2.8993,435
2.901,421
2.9026,377
2.9043,324
2.906,293
2.9094,298
2.911,339
2.9126,393
2.9143,429
2.916,428
2.9193,393
2.921,340
2.9227,299
2.9243,291
2.9274,320
2.9291,372
2.9306,416
2.9322,427
2.9339,401
2.9372,351
2.9389,302
2.9406,282
2.9423,301
2.9455,349
2.9472,399
2.9488,424
2.9504,410
2.9521,365
2.9555,311
2.9572,279
2.9588,284
2.9604,323
2.962,376
2.9652,412
2.9668,411
2.9685,375
2.9702,322
2.9719,282
2.9753,276
2.9769,307
2.9785,359
2.9801,403
2.9834,415
2.985,390
2.9867,339
2.9894,290
2.991,270
2.9932,286
2.9947,332
2.9964,382
2.9979,406
3.0017,391
3.0027,344
3.0049,290
3.0059,257
3.0093,261
3.0106,299
3.0123,353
3.014,389
3.0173,388
3.019,351
3.0206,297
3.0235,256
3.0251,247
3.0268,275
3.0285,326
3.0301,372
3.0333,385
3.0351,359
3.0367,306
3.0383,257
3.04,236
3.0432,254
3.0447,300
3.0464,352
3.048,379
3.0509,365
3.0525,318
3.0542,265
3.0576,232
3.0592,235
3.0606,274
3.0622,327
3.0654,366
3.0672,368
3.0686,333
3.0702,282
3.0719,243
3.0752,238
3.0769,271
3.0785,326
3.0802,377
3.0818,394
3.0851,372
3.0868,325
3.0885,281
3.0901,265
3.0935,286
3.0951,338
3.0969,392
3.098,421
3.1014,411
3.1035,370
3.1045,319
3.1062,290
3.1095,297
3.1112,339
3.1129,396
3.1145,434
3.1162,437
3.1179,404
3.1214,353
3.123,312
3.1247,304
3.1264,335
3.1297,387
3.1314,432
3.1332,446
3.135,423
3.1366,375
3.1383,328
3.14,308
3.1433,326
3.1451,373
3.1468,424
3.1485,450
3.1502,439
3.1535,397
3.1552,347
3.1569,315
3.1586,320
3.1604,360
3.1631,413
3.1648,450
3.1671,451
3.1687,416
3.1714,366
3.173,324
3.1752,316
3.1763,347
3.178,398
3.1814,443
3.1831,458
3.1847,435
3.1864,386
3.1882,337
3.1916,315
3.193,333
3.1946,380
3.1962,430
3.1996,457
3.2012,446
3.203,405
3.2047,354
3.2064,321
3.2094,325
3.211,365
3.2127,416
3.2154,452
3.2168,453
3.2181,418
3.2214,368
3.2231,324
3.2243,316
3.226,346
3.2293,397
3.2309,443
3.2326,457
3.2343,434
3.236,387
3.2394,339
3.2406,317
3.2424,335
3.2441,382
3.2474,432
3.2491,458
3.2507,446
3.2523,403
3.2556,351
3.2573,318
3.259,322
3.2607,362
3.2624,416
3.2641,454
3.2661,456
3.2695,421
3.2712,370
3.273,327
3.2747,317
3.2764,347
3.2781,398
3.2815,443
3.2832,458
3.2849,436
3.2866,388
3.2883,340
3.29,318
3.2932,336
3.2949,383
3.2966,434
3.2983,461
3.2999,450
3.3032,407
3.3046,355
3.3063,321
3.308,324
3.3113,364
3.3129,416
3.3146,453
3.3163,455
3.3179,422
3.3213,371
3.323,329
3.3247,319
3.3264,349
3.3279,400
3.3312,444
3.3328,458
3.3345,435
3.3362,386
3.338,335
3.3413,313
3.3429,329
3.3446,375
3.3462,425
3.3494,453
3.351,442
3.3527,399
3.3554,347
3.357,312
3.3587,313
3.3604,351
3.362,401
3.3654,435
3.367,434
3.3688,397
3.3705,344
3.3722,301
3.3739,293
3.3773,322
3.379,376
3.3807,424
3.3825,439
3.3842,417
3.3859,371
3.3891,322
3.3909,301
3.3926,316
3.3943,363
3.3959,413
3.3994,439
3.401,428
3.4027,385
3.4044,332
3.406,300
3.4093,304
3.411,344
3.4121,398
3.4154,437
3.4171,441
3.4187,409
3.4204,359
3.422,316
3.4253,307
3.4269,336
3.4287,387
3.4304,433
3.4321,449
3.4354,426
3.437,378
3.4386,329
3.4402,307
3.4434,322
3.445,369
3.4467,419
3.4483,446
3.4499,435
3.4531,394
3.4547,342
3.4564,308
3.4581,310
3.4613,348
3.463,398
3.4647,431
3.4669,423
3.4679,377
3.4712,309
3.4728,250
3.4745,219
3.4761,222
3.4794,246
3.4811,265
3.4829,258
3.4845,224
3.4861,176
3.4894,134
3.4911,124
3.4928,158
3.494,225
3.4976,306
3.4994,378
3.501,415
3.5027,411
3.5043,380
3.506,353
3.5094,351
3.5108,377
3.5123,416
3.514,440
3.5174,433
3.519,395
3.5207,343
3.5224,301
3.5242,293
3.5277,324
3.5295,379
3.5311,428
3.5329,446
3.5346,425
3.5363,378
3.538,329
3.5413,307
3.543,322
3.5447,370
3.5463,422
3.548,451
3.5513,441
3.553,399
3.5547,347
3.5563,312
3.558,314
3.5613,352
3.5631,404
3.5652,442
3.5669,444
3.5692,411
3.5708,360
3.5724,316
3.574,304
3.5773,331
3.5789,382
3.5805,429
3.582,445
3.5856,424
3.5867,376
3.5884,325
3.5902,301
3.5919,314
3.5952,360
3.5969,411
3.5986,438
3.6002,427
3.6036,385
3.6053,332
3.6065,297
3.6082,299
3.6099,336
3.6132,389
3.6149,428
3.6166,432
3.6182,400
3.6215,348
3.6227,303
3.6244,292
3.626,318
3.6293,370
3.631,416
3.6326,432
3.6342,410
3.6359,361
3.6392,311
3.6409,287
3.6425,301
3.6441,346
3.6473,397
3.6489,426
3.6505,416
3.6521,374
3.6554,321
3.657,286
3.6587,285
3.6603,320
3.6635,373
3.6651,410
3.6673,412
3.6683,379
3.6699,325
3.6733,281
3.6745,268
3.6762,292
3.6794,341
3.6806,388
3.6822,403
3.6854,380
3.687,329
3.6888,278
3.6905,253
3.6922,265
3.6939,309
3.6972,360
3.6989,388
3.7006,378
3.7022,334
3.7039,282
3.7072,247
3.7089,247
3.7105,283
3.7122,335
3.7155,376
3.7172,380
3.7184,347
3.7201,294
3.7234,252
3.725,240
3.7266,267
3.7283,318
3.7299,369
3.7333,388
3.7349,369
3.7366,322
3.7383,276
3.7401,255
3.7434,273
3.745,321
3.7466,378
3.7483,411
3.7499,406
3.7532,369
3.755,319
3.7566,287
3.7584,290
3.76,329
3.7633,385
3.7649,427
3.7665,433
3.7681,402
3.7712,351
3.7733,308
3.7744,297
3.7759,323
3.779,377
3.7808,425
3.7824,443
3.7841,424
3.7859,378
3.7892,329
3.7909,305
3.7926,320
3.7943,367
3.7976,419
3.7992,450
3.8004,442
3.8022,402
3.8055,350
3.8071,314
3.8088,314
3.8104,352
3.812,404
3.8152,443
3.8169,448
3.8181,416
3.8214,365
3.8231,319
3.8247,305
3.8263,329
3.8295,380
3.8311,427
3.8327,445
3.8346,424
3.8361,377
3.8395,327
3.8415,302
3.8425,314
3.8443,359
3.846,410
3.8494,439
3.8507,431
3.8524,391
3.8542,338
3.8575,302
3.8591,302
3.8608,338
3.8625,391
3.8642,431
3.8659,436
3.868,405
3.8713,354
3.873,307
3.8746,293
3.8763,317
3.8795,368
3.8814,415
3.8824,432
3.8841,413
3.8872,366
3.8884,316
3.8902,292
3.8919,304
3.8956,349
3.8966,401
3.8983,431
3.8999,423
3.9036,383
3.9049,331
3.9066,294
3.9083,294
3.9101,330
3.9133,384
3.915,424
3.9166,430
3.9182,399
3.9215,348
3.9231,304
3.9248,292
3.9264,317
3.928,369
3.9313,417
3.933,437
3.9346,418
3.9362,372
3.938,321
3.9413,296
3.9429,308
3.9445,352
3.9461,404
3.9493,435
3.9509,428
3.9525,388
3.9541,335
3.9572,299
3.9588,298
3.9605,333
3.9621,387
3.9652,428
3.9669,433
3.9685,403
3.9702,352
3.9719,306
3.9752,293
3.9767,317
3.9784,369
3.9801,418
3.9833,438
3.985,419
3.9867,373
3.9883,323
3.9901,297
3.9934,309
3.9951,354
3.9968,405
3.9985,434
4.0002,426
4.0035,386
4.0051,332
4.0068,294
4.0084,291
4.01,324
4.0132,378
4.0152,419
4.0162,426
4.0179,396
4.021,345
4.0226,299
4.0242,283
4.0274,304
4.029,351
4.0305,395
4.0322,411
4.0339,390
4.0373,342
4.0387,292
4.0404,267
4.042,281
4.0453,326
4.0469,382
4.0486,414
4.0503,410
4.0536,372
4.0553,319
4.057,283
4.0586,282
4.0603,317
4.062,370
4.0653,411
4.0669,418
4.0685,387
4.0701,336
4.0733,292
4.075,279
4.0767,305
4.0784,357
4.0801,409
4.0834,431
4.0849,416
4.0865,371
4.0883,321
4.0913,295
4.0929,306
4.0945,350
4.0962,402
4.0995,433
4.1011,426
4.1032,387
4.1043,334
4.1074,297
4.1089,296
4.1106,330
4.1123,383
4.114,424
4.1173,430
4.1189,400
4.1216,350
4.1226,304
4.1251,289
4.1268,311
4.1285,359
4.1301,403
4.1334,413
4.1351,383
4.1367,319
4.1384,254
4.1401,208
4.1434,196
4.145,214
4.1467,241
4.1484,254
4.1501,241
4.1534,204
4.155,161
4.1579,138
4.1593,155
4.1609,210
4.1626,287
4.1661,367
4.1661,418
4.1687,424
4.1717,394
4.1741,355
4.1762,333
4.1771,345
4.1771,379
4.1814,413
4.1814,422
4.1855,398
4.1874,350
4.1884,300
4.1884,277
4.1884,291
4.1884,336
4.1884,392
4.1884,426
4.1884,421
4.2032,382
4.2032,329
4.2032,292
4.2032,290
4.2032,324
4.2032,377
4.2032,418
4.2032,426
4.2192,396
4.2192,345
4.2192,299
4.2192,284
4.2192,306
4.2192,355
4.2192,404
4.2192,424
4.2352,405
4.2352,360
4.2352,310
4.2352,283
4.2428,293
4.2448,336
4.2468,389
4.2492,421
4.2498,416
4.2498,377
4.2541,322
4.2574,285
4.2574,282
4.2574,315
4.2574,368
4.2574,410
4.2658,419
4.2685,390
4.2715,338
4.2715,292
4.2749,276
4.2749,298
4.2749,347
4.2803,397
4.2818,418
4.2839,400
4.2859,354
4.2879,302
4.2899,275
4.2919,285
4.294,327
4.296,380
4.299,412
4.299,406
4.299,367
4.3048,313
4.3074,275
4.309,272
4.3106,305
4.3122,357
4.3138,400
4.317,407
4.317,377
4.321,325
4.3231,280
4.3251,263
4.3271,284
4.3291,332
4.3291,381
4.3318,401
4.3338,382
4.3358,334
4.3394,282
4.3394,253
4.3429,261
4.3449,301
4.3449,353
4.3449,385
4.3507,378
4.3507,337
4.3507,283
4.3507,244
4.3507,239
4.3605,271
4.3605,322
4.3605,364
4.3605,373
4.3686,342
4.3706,290
4.3706,243
4.3706,226
4.3767,246
4.3767,294
4.3767,344
4.3767,367
4.3767,350
4.3855,303
4.3855,254
4.3855,226
4.3925,237
4.3945,281
4.3965,335
4.3985,373
4.4006,373
4.4026,338
4.4046,288
4.4066,254
4.4084,254
4.4104,291
4.4124,349
4.4144,398
4.4164,412
4.4184,388
4.4204,341
4.4224,297
4.4242,284
4.4242,308
4.4242,360
4.4242,411
4.4242,436
4.4242,422
4.4372,379
4.4372,330
4.441,303
4.441,314
4.441,360
4.441,415
4.441,450
4.441,447
4.4525,410
4.4525,359
4.4562,321
4.4582,318
4.4602,352
4.4602,404
4.4654,448
4.4654,458
4.4685,431
4.4706,381
4.4721,335
4.4741,318
4.4761,340
4.4781,390
4.4811,439
4.4824,461
4.4824,445
4.4824,401
4.4891,350
4.4912,321
4.4932,330
4.4952,372
4.4972,424
4.4992,457
4.5012,454
4.5032,416
4.5032,365
4.5032,324
4.5032,320
4.5032,354
4.512,406
4.512,449
4.512,458
4.5192,431
4.5192,382
4.522,337
4.522,319
4.522,340
4.522,388
4.522,437
4.522,459
4.5349,443
4.5369,397
4.5389,347
4.541,316
4.543,325
4.545,368
4.545,420
4.5485,454
4.5508,451
4.5508,413
4.5508,362
4.5572,322
4.5593,318
4.5612,352
4.5634,405
4.5634,448
4.5668,459
4.5688,431
4.5688,382
4.5724,334
4.5753,316
4.5753,338
4.5753,387
4.5795,436
4.582,458
4.5841,443
4.5841,398
4.5887,348
4.5907,318
4.5907,325
4.5907,367
4.5956,419
4.5978,453
4.5998,450
4.6018,413
4.6054,362
4.6054,321
4.609,317
4.6105,351
4.612,403
4.6151,446
4.6167,456
4.6183,428
4.6183,378
4.6183,331
4.6183,314
4.6183,335
4.6293,384
4.6293,433
4.6332,456
4.6353,441
4.6373,397
4.6393,346
4.6413,316
4.6433,324
4.6451,366
4.6471,418
4.6471,452
4.6496,450
4.6524,414
4.6545,362
4.6565,321
4.6585,316
4.6605,348
4.6625,401
4.6645,444
4.6665,455
4.669,428
4.669,377
4.6717,328
4.6737,309
4.6757,327
4.6777,375
4.6797,424
4.6817,446
4.6838,430
4.6858,386
4.6881,336
4.6914,306
4.6934,314
4.6954,355
4.6974,406
4.6974,438
4.6994,433
4.7014,393
4.7034,336
4.7069,293
4.7069,286
4.7099,316
4.7099,369
4.7099,414
4.7099,426
4.7099,401
4.7099,353
4.7226,308
4.7238,291
4.7258,312
4.7258,362
4.7258,412
4.7258,436
4.7258,421
4.7258,376
4.7385,323
4.7385,293
4.7417,300
4.7446,340
4.7466,394
4.7487,430
4.7507,430
4.7532,396
4.7543,346
4.7543,308
4.7587,304
4.7614,336
4.7634,389
4.7654,434
4.7674,445
4.7689,417
4.771,368
4.773,319
4.775,300
4.775,319
4.778,367
4.7806,416
4.7822,439
4.7848,424
4.7848,379
4.7848,326
4.7907,296
4.7927,303
4.7947,344
4.7967,396
4.7987,431
4.8005,426
4.8025,383
4.8025,321
4.807,268
4.809,246
4.811,259
4.8131,291
4.8151,313
4.8166,300
4.8186,250
4.8206,180
4.8226,122
4.8246,103
4.8267,130
4.8287,191
4.8306,261
4.8329,306
4.8346,315
4.8371,303
4.8392,293
4.8409,300
4.8426,331
4.8442,382
4.8459,433
4.8492,457
4.8509,442
4.8526,391
4.8543,325
4.8559,279
4.8592,269
4.8609,300
4.8625,355
4.8641,404
4.8673,420
4.8673,397
4.8709,349
4.8725,302
4.8741,283
4.8772,302
4.8788,350
4.8804,400
4.882,424
4.8853,411
4.887,367
4.8887,315
4.8903,285
4.8919,292
4.8951,332
4.8966,386
4.8994,421
4.9015,420
4.9031,383
4.9047,330
4.9064,289
4.908,283
4.9112,314
4.913,367
4.9146,412
4.9162,425
4.9195,400
4.9212,350
4.923,302
4.9246,282
4.9263,300
4.928,348
4.9308,398
4.9326,421
4.9343,408
4.9361,365
4.939,313
4.9407,283
4.9423,288
4.9455,328
4.9472,382
4.9489,418
4.9506,417
4.9538,380
4.9555,327
4.9565,285
4.9582,277
4.9617,305
4.9633,357
4.9654,401
4.9664,413
4.9682,386
4.9715,335
4.9732,286
4.9749,265
4.9765,282
4.9781,328
4.9813,380
4.9829,406
4.9845,392
4.9861,348
4.9894,295
4.9911,264
4.9928,268
4.9945,306
4.9961,358
4.9994,393
5.0011,391
5.0027,354
5.0046,298
5.0063,256
5.0095,247
5.0113,274
5.013,325
5.0147,371
5.0164,383
5.018,356
5.0214,304
5.0233,255
5.0243,233
5.026,249
5.0294,295
5.0314,345
5.0324,370
5.0341,355
5.0376,307
5.0394,255
5.0404,221
5.0437,224
5.0456,262
5.0466,314
5.0498,351
5.0515,351
5.0536,313
5.0546,261
5.0564,219
5.0582,211
5.0615,241
5.0632,293
5.065,340
5.0668,356
5.0685,332
5.0714,285
5.0736,239
5.0753,221
5.0771,240
5.0787,290
5.0804,347
5.0822,378
5.0839,370
5.0874,329
5.0891,282
5.0908,254
5.0924,262
5.0941,304
5.0972,361
5.0989,402
5.1007,406
5.1026,375
5.1044,325
5.1062,286
5.1081,280
5.1099,311
5.1135,365
5.1155,412
5.1166,427
5.1184,405
5.1202,358
5.1219,310
5.1256,291
5.1273,310
5.1294,359
5.1304,412
5.1323,440
5.1341,430
5.1359,387
5.1395,336
5.1412,304
5.1431,308
5.1446,347
5.1465,399
5.1483,436
5.1501,437
5.152,402
5.1555,351
5.1572,309
5.1594,301
5.1604,330
5.1621,383
5.1656,428
5.1675,442
5.1685,418
5.1713,369
5.1719,319
5.1755,298
5.1772,314
5.1792,361
5.1815,411
5.1832,436
5.1849,424
5.1866,381
5.1894,329
5.1914,297
5.1924,301
5.1942,340
5.196,393
5.1993,431
5.2014,433
5.2025,401
5.2044,350
5.2062,308
5.2094,299
5.2115,327
5.2128,378
5.2139,423
5.2175,438
5.2194,414
5.2204,365
5.2221,316
5.2256,294
5.2275,311
5.2285,358
5.2302,409
5.2337,435
5.2353,424
5.2371,383
5.239,331
5.2416,298
5.2433,302
5.245,342
5.2468,395
5.2485,433
5.2503,434
5.2537,400
5.2553,348
5.2571,306
5.2589,297
5.2606,325
5.2623,379
5.2656,426
5.2672,441
5.269,419
5.2707,372
5.2724,323
5.274,302
5.2774,319
5.2794,366
5.2805,416
5.2821,444
5.2853,432
5.287,389
5.2892,338
5.2916,304
5.2933,308
5.2955,347
5.2966,400
5.2987,438
5.3016,440
5.3037,406
5.3047,355
5.3066,313
5.3084,304
5.3102,333
5.312,387
5.3156,433
5.3176,449
5.3186,426
5.3205,379
5.3236,330
5.3253,308
5.3275,324
5.3286,372
5.3304,423
5.3322,451
5.334,442
5.3358,400
5.3394,349
5.3415,314
5.3425,317
5.3444,355
5.3462,406
5.3481,442
5.3515,443
5.3532,410
5.3549,359
5.3566,313
5.3584,302
5.3602,330
5.3635,382
5.3654,428
5.3671,444
5.3689,421
5.3706,370
5.3722,317
5.3757,291
5.3773,303
5.3794,346
5.3816,394
5.3832,421
5.385,411
5.3868,371
5.3886,319
5.3903,287
5.392,292
5.3953,332
5.3971,387
5.3987,426
5.4004,430
5.4021,398
5.4055,347
5.4072,306
5.4091,297
5.4109,324
5.413,377
5.4156,423
5.4166,438
5.4184,416
5.4201,369
5.4219,320
5.4256,299
5.4276,317
5.429,367
5.4301,420
5.4319,450
5.4355,441
5.4372,401
5.439,351
5.4408,317
5.4426,318
5.4445,356
5.4463,408
5.4481,445
5.45,447
5.4536,415
5.4554,364
5.4575,321
5.4585,310
5.4604,338
5.4622,389
5.464,436
5.4659,452
5.4689,430
5.4705,381
5.4722,331
5.4739,305
5.4771,316
5.4788,354
5.4804,393
5.4821,406
5.4854,379
5.4875,316
5.489,243
5.4907,186
5.4924,163
5.494,177
5.4973,215
5.499,253
5.5007,263
5.5025,242
5.5041,208
5.5074,184
5.5091,193
5.5108,246
5.5124,336
5.5156,428
5.5174,478
5.5191,472
5.5207,427
5.5225,369
5.5241,328
5.5279,326
5.529,357
5.5307,398
5.5325,421
5.5341,411
5.5374,369
5.5391,319
5.5407,287
5.5424,291
5.5441,329
5.5473,384
5.5491,424
5.5507,428
5.5525,397
5.5542,346
5.556,303
5.5596,292
5.5613,318
5.563,370
5.5648,416
5.5666,432
5.5684,410
5.5702,362
5.5736,311
5.5753,288
5.5775,302
5.5788,347
5.5816,399
5.5827,428
5.5845,418
5.5866,376
5.5894,322
5.5916,287
5.593,288
5.5954,325
5.5975,378
5.5985,416
5.6004,419
5.6022,386
5.604,333
5.6076,289
5.6093,277
5.6114,303
5.6125,353
5.6143,400
5.6162,417
5.618,395
5.6199,347
5.6234,297
5.6255,273
5.6265,285
5.6284,331
5.6301,383
5.6319,412
5.6355,404
5.6372,362
5.6392,308
5.6403,273
5.6421,273
5.6456,308
5.6467,360
5.648,399
5.6498,402
5.6533,369
5.6555,316
5.6565,273
5.6584,261
5.6617,286
5.6633,335
5.6653,382
5.6663,398
5.668,376
5.6713,326
5.6728,276
5.6746,251
5.6763,263
5.6781,305
5.6815,358
5.6832,387
5.6849,378
5.6867,334
5.6884,281
5.6902,245
5.6938,244
5.6955,278
5.6972,329
5.699,369
5.7009,373
5.7025,338
5.7044,285
5.7061,241
5.7093,227
5.7105,251
5.712,300
5.7157,347
5.7175,364
5.7197,342
5.7207,293
5.7225,243
5.7251,218
5.7275,231
5.7287,276
5.7305,329
5.7322,362
5.734,355
5.7375,312
5.7393,262
5.7406,227
5.7422,228
5.7455,266
5.7472,321
5.7489,366
5.7506,375
5.7538,347
5.7553,299
5.7574,259
5.7584,252
5.7602,282
5.7636,337
5.7653,391
5.767,413
5.7687,396
5.7704,352
5.7732,304
5.7755,282
5.7771,297
5.7789,345
5.7806,400
5.7822,432
5.7839,426
5.7872,388
5.789,337
5.7907,303
5.7925,304
5.7942,342
5.7975,397
5.7991,437
5.8008,443
5.8025,413
5.8041,364
5.8059,320
5.8093,308
5.8109,334
5.8126,385
5.8143,433
5.816,451
5.8193,433
5.821,387
5.8227,337
5.8244,313
5.826,327
5.8294,373
5.8311,425
5.8328,456
5.8345,448
5.8374,408
5.839,357
5.8407,319
5.8424,318
5.844,354
5.8474,406
5.849,446
5.8507,451
5.8524,421
5.8541,370
5.8558,326
5.8591,312
5.8604,336
5.8621,386
5.8655,433
5.8674,451
5.8684,432
5.8701,385
5.8734,336
5.8751,311
5.8768,323
5.8785,369
5.8801,421
5.8834,453
5.8847,446
5.8865,406
5.8883,354
5.89,317
5.8934,317
5.8951,353
5.8968,405
5.8985,445
5.9014,451
5.9031,421
5.9048,371
5.9065,326
5.9082,314
5.9115,339
5.9136,390
5.9146,438
5.9163,457
5.9185,438
5.9211,392
5.9228,342
5.9244,316
5.9261,327
5.9295,371
5.9311,423
5.9328,452
5.9345,445
5.9363,406
5.938,355
5.9414,319
5.9431,318
5.9448,355
5.9465,407
5.9482,447
5.9516,454
5.9531,424
5.9548,375
5.9566,329
5.9583,316
5.96,340
5.9634,389
5.9647,436
5.9665,456
5.9682,437
5.97,390
5.9734,340
5.9754,313
5.9764,325
5.9781,370
5.9813,422
5.9834,453
5.9844,447
5.9861,408
5.9878,358
5.9913,320
5.9933,318
5.9943,354
5.9961,406
5.9995,446
6.0006,453
6.0023,424
6.0049,374
6.0066,329
6.0083,314
6.0101,338
6.0136,388
6.0152,435
6.017,453
6.0186,433
6.0211,386
6.0233,334
6.0249,306
6.0265,316
6.0294,360
6.0315,410
6.0332,441
6.0349,435
6.0365,396
6.0384,344
6.0401,306
6.0419,302
6.0452,333
6.0469,383
6.0486,420
6.0503,422
6.0536,388
6.0553,334
6.057,288
6.0587,274
6.0604,298
6.062,350
6.0652,401
6.0669,423
6.0685,405
6.0702,360
6.0717,310
6.0747,285
6.0774,296
6.0791,339
6.0807,392
6.0824,424
6.084,418
6.0873,378
6.089,325
6.0907,288
6.0924,286
6.094,321
6.0972,376
6.0989,420
6.101,430
6.1037,404
6.1053,356
6.107,311
6.1087,296
6.1104,319
6.1121,370
6.1155,417
6.1171,438
6.1189,419
6.1206,373
6.1223,322
6.124,295
6.1273,307
6.1294,350
6.1315,403
6.133,435
6.1353,430
6.137,390
6.1386,337
6.1404,300
6.1421,297
6.1455,330
6.1471,383
6.149,423
6.1508,427
6.1525,389
6.1541,323
6.1575,263
6.1592,230
6.1609,231
6.1626,256
6.1643,280
6.1659,277
6.1693,240
6.171,184
6.1727,135
6.1743,116
6.176,140
6.1793,203
6.1808,278
6.1819,336
6.1853,365
6.187,369
6.1886,357
6.1903,345
6.192,351
6.1954,380
6.1971,420
6.1988,445
6.2006,436
6.2023,394
6.2056,333
6.207,283
6.2082,267
6.2115,291
6.2131,344
6.2148,398
6.2166,422
6.2183,407
6.22,363
6.2234,312
6.225,285
6.2267,294
6.2284,336
6.2301,389
6.2318,422
6.235,418
6.2367,382
6.2385,330
6.2402,292
6.2419,289
6.2452,322
6.2473,375
6.2483,417
6.25,425
6.2534,396
6.255,345
6.2568,298
6.2586,281
6.2598,302
6.2632,352
6.2649,400
6.2665,421
6.2683,404
6.2699,359
6.2733,307
6.2749,280
6.276,289
6.2794,331
6.2811,385
6.2828,418
6.2845,414
6.2862,376
6.2879,323
6.2914,286
6.2931,281
6.2949,313
6.2967,365
6.2984,406
6.3001,414
6.3034,386
6.3053,336
6.3063,290
6.308,273
6.3113,294
6.3129,343
6.3146,392
6.3162,412
6.3195,395
6.3211,348
6.3229,297
6.3246,268
6.3263,276
6.3279,318
6.3313,372
6.333,405
6.3347,399
6.3364,359
6.3381,304
6.3415,264
6.3432,258
6.3449,288
6.3465,339
6.3481,381
6.3513,389
6.3529,360
6.3546,307
6.3564,260
6.3595,243
6.3611,263
6.3623,309
6.364,359
6.3674,380
6.3692,363
6.3706,314
6.3736,262
6.3752,233
6.3769,239
6.3786,280
6.3803,331
6.382,364
6.3853,359
6.3869,319
6.3891,266
6.3901,226
6.3934,220
6.395,251
6.3967,302
6.3984,347
6.4001,357
6.4034,328
6.4055,277
6.4065,232
6.4083,215
6.41,235
6.4134,284
6.415,336
6.4166,361
6.4182,347
6.4215,304
6.4235,257
6.4246,232
6.4262,245
6.4296,290
6.4313,349
6.4331,388
6.4348,390
6.4365,356
6.4396,307
6.4412,272
6.4428,271
6.4446,306
6.4463,363
6.448,409
6.4513,423
6.4529,399
6.4541,352
6.4575,308
6.4592,293
6.4609,317
6.4626,368
6.4643,419
6.4659,444
6.4692,431
6.4708,388
6.4725,338
6.4748,310
6.4758,319
6.4792,363
6.4809,415
6.4826,450
6.4843,448
6.486,412
6.4895,362
6.4911,323
6.4928,318
6.4945,351
6.4962,403
6.4979,445
6.5013,456
6.5031,429
6.5042,380
6.5059,332
6.5093,313
6.5109,334
6.5126,382
6.5143,431
6.516,454
6.5194,438
6.5211,393
6.5228,342
6.5245,311
6.5262,319
6.5295,362
6.531,415
6.5325,449
6.5341,447
6.5371,410
6.539,359
6.54,317
6.5434,312
6.5449,343
6.5466,394
6.548,438
6.5515,448
6.5537,421
6.5548,372
6.5565,325
6.5581,306
6.5614,326
6.5626,375
6.5644,424
6.5662,447
6.5681,432
6.5717,387
6.5734,335
6.575,304
6.5767,310
6.5784,352
6.5802,404
6.5819,438
6.5853,436
6.587,399
6.5887,348
6.5903,307
6.5935,302
6.5948,333
6.5969,387
6.5979,430
6.6014,441
6.6031,416
6.6051,366
6.6061,318
6.6095,300
6.6112,320
6.6129,369
6.6146,419
6.6163,443
6.6179,430
6.6212,387
6.623,336
6.6247,306
6.6264,313
6.6282,355
6.6299,408
6.6333,443
6.6351,443
6.6368,407
6.6385,356
6.6403,315
6.6434,309
6.6451,339
6.6468,390
6.6486,433
6.6503,444
6.6521,418
6.6554,369
6.6571,322
6.6583,303
6.6601,323
6.6634,372
6.6651,421
6.6668,445
6.6686,431
6.6702,386
6.6719,334
6.6753,303
6.677,310
6.6787,351
6.6804,404
6.6821,439
6.6854,437
6.687,401
6.6891,347
6.6901,305
6.6918,297
6.6952,326
6.6969,378
6.6986,421
6.7003,432
6.702,406
6.7054,357
6.7071,309
6.7088,290
6.7105,309
6.7122,357
6.7139,404
6.7173,424
6.7189,405
6.7209,357
6.7219,301
6.7253,268
6.7269,274
6.7285,315
6.7303,371
6.732,409
6.7355,411
6.7371,377
6.7395,326
6.7406,288
6.7421,282
6.7453,313
6.7468,365
6.7484,409
6.7501,422
6.7535,397
6.7553,348
6.7565,302
6.7583,284
6.76,303
6.7634,351
6.7654,403
6.7665,429
6.7682,417
6.77,376
6.7734,327
6.7734,298
6.7763,305
6.778,348
6.7815,401
6.7833,436
6.7851,436
6.7863,401
6.788,351
6.7913,311
6.7929,304
6.7946,334
6.7962,386
6.7979,430
6.8014,442
6.8037,416
6.8047,367
6.8065,317
6.8082,297
6.81,315
6.8134,362
6.8154,411
6.8165,435
6.8191,418
6.8209,367
6.8226,301
6.8243,255
6.8261,242
6.8294,259
6.831,286
6.8327,294
6.8353,264
6.8371,203
6.8388,134
6.8406,87
6.8424,81
6.8442,121
6.8478,192
6.8496,262
6.8513,306
6.8523,323
6.8541,326
6.8576,324
6.8593,334
6.861,364
6.8628,409
6.8645,449
6.8675,460
6.8697,433
6.8707,378
6.8724,317
6.8742,282
6.8765,287
6.8792,329
6.8847,386
6.8847,425
6.8858,428
6.8874,396
6.8895,346
6.8905,306
6.8922,298
6.8952,326
6.8969,379
6.8987,422
6.9004,435
6.9022,410
6.9055,362
6.9072,313
6.909,292
6.9108,309
6.9129,357
6.9139,407
6.9174,433
6.9191,421
6.9209,379
6.9226,326
6.9243,294
6.926,300
6.9294,340
6.9311,393
6.9329,429
6.9347,430
6.9364,395
6.9383,341
6.94,299
6.9436,289
6.9449,317
6.9466,369
6.9483,414
6.9501,428
6.9536,404
6.9553,355
6.9569,304
6.959,281
6.96,295
6.9634,341
6.9651,390
6.9668,415
6.9686,402
6.9703,358
6.972,305
6.9753,272
6.977,276
6.9786,314
6.9803,367
6.982,403
6.9856,402
6.9873,366
6.9894,312
6.9904,271
6.9933,262
6.9955,290
6.9965,341
6.9983,388
7.0,403
7.0034,379
7.0052,328
7.0069,279
7.0087,256
7.0104,270
7.0122,314
7.0157,364
7.0173,389
7.0194,376
7.0204,331
7.0221,279
7.024,245
7.0274,249
7.0291,286
7.0308,339
7.0325,376
7.0342,376
7.0359,338
7.0389,284
7.0406,241
7.0423,231
7.0451,258
7.0473,308
7.049,354
7.0507,368
7.0524,342
7.0555,292
7.0572,243
7.0588,220
7.0606,235
7.0623,280
7.0655,331
7.0671,359
7.0688,346
7.0705,301
7.0723,250
7.0741,216
7.0774,220
7.0794,260
7.0804,314
7.0822,356
7.084,361
7.0874,328
7.0885,280
7.0902,242
7.0936,237
7.0953,268
7.0971,322
7.0988,374
7.1006,394
7.1023,375
7.1041,330
7.1075,286
7.1092,267
7.111,286
7.1127,335
7.1145,391
7.1163,422
7.1181,415
7.1216,377
7.1233,328
7.1249,299
7.1267,304
7.1285,345
7.1302,401
7.1338,442
7.1355,444
7.1372,413
7.1389,362
7.1408,319
7.1425,309
7.1443,339
7.1461,392
7.1496,439
7.1513,456
7.1529,434
7.1546,387
7.1563,339
7.158,316
7.1614,332
7.163,380
7.1647,432
7.1664,460
7.1682,449
7.1699,408
7.1734,357
7.1748,322
7.1771,325
7.1781,364
7.1816,416
7.1833,453
7.1854,456
7.1868,423
7.1895,372
7.1912,329
7.1936,319
7.1954,347
7.1971,398
7.1994,445
7.2015,461
7.2032,439
7.2051,393
7.2061,344
7.2097,320
7.2114,335
7.2134,381
7.2144,430
7.2162,458
7.218,447
7.2214,405
7.2231,355
7.2249,321
7.2266,323
7.2283,362
7.2316,415
7.2331,453
7.2347,456
7.2362,424
7.2395,373
7.2405,330
7.2423,319
7.2441,346
7.2459,397
7.2493,443
7.251,458
7.2529,435
7.2541,388
7.2559,338
7.2593,314
7.2615,330
7.2625,377
7.2643,427
7.2674,455
7.2691,447
7.2703,406
7.2721,354
7.2754,319
7.2771,321
7.2787,360
7.2805,414
7.2822,453
7.284,456
7.2872,424
7.2888,373
7.2906,329
7.2922,318
7.294,346
7.2973,397
7.299,444
7.3007,461
7.3037,439
7.3055,392
7.3073,344
7.3091,320
7.3108,335
7.3125,380
7.3142,431
7.316,459
7.3195,449
7.3215,407
7.3226,356
7.3244,321
7.3261,323
7.3294,361
7.3311,413
7.3329,452
7.3347,455
7.3364,422
7.3381,370
7.3399,327
7.3435,316
7.3452,344
7.347,396
7.3488,443
7.3506,459
7.3525,438
7.3543,390
7.3561,340
7.3579,316
7.3614,329
7.3632,375
7.3646,424
7.3663,453
7.3681,444
7.3715,402
7.3732,349
7.3751,312
7.3769,312
7.3786,350
7.3803,403
7.382,443
7.3854,446
7.3871,414
7.3888,361
7.3905,313
7.3923,298
7.3941,321
7.3973,369
7.3979,414
7.4014,431
7.4034,411
7.4045,364
7.4066,317
7.4095,295
7.4116,311
7.413,358
7.4155,410
7.4172,439
7.419,430
7.4207,389
7.4225,336
7.4242,301
7.426,300
7.4294,337
7.4305,390
7.4322,429
7.434,433
7.4374,402
7.4391,353
7.4409,310
7.4426,300
7.4446,329
7.4473,383
7.449,432
7.4508,451
7.4525,431
7.4543,385
7.456,334
7.4595,308
7.4612,321
7.463,366
7.4651,416
7.4675,444
7.4696,436
7.4706,395
7.4723,344
7.4741,308
7.4759,309
7.4793,346
7.4815,399
7.4829,439
7.4854,444
7.487,413
7.4888,362
7.4906,314
7.4923,295
7.4955,310
7.4975,347
7.4985,379
7.5002,377
7.502,332
7.5054,257
7.5074,179
7.5084,123
7.5102,111
7.512,143
7.5155,193
7.5173,231
7.5193,240
7.5203,221
7.522,194
7.5254,190
7.5275,235
7.5285,320
7.5303,414
7.532,477
7.5354,490
7.5371,456
7.5389,395
7.5415,336
7.5435,310
7.5445,325
7.5463,371
7.548,417
7.5515,435
7.5536,417
7.5546,373
7.5564,325
7.5595,302
7.5611,316
7.5629,362
7.5646,413
7.5663,442
7.5681,435
7.5716,395
7.5729,344
7.5739,308
7.5773,309
7.5789,346
7.5807,398
7.5824,438
7.5842,442
7.5859,411
7.5889,360
7.5906,314
7.5923,300
7.5941,324
7.5975,374
7.5995,421
7.6005,438
7.6023,418
7.6041,370
7.6075,319
7.6093,293
7.611,305
7.6127,349
7.6144,401
7.6161,431
7.6179,422
7.6209,381
7.6227,327
7.6245,290
7.6262,289
7.628,325
7.6314,379
7.6335,420
7.6345,426
7.6363,395
7.638,342
7.6415,297
7.6432,282
7.6449,305
7.6465,355
7.6482,403
7.6515,420
7.6531,399
7.6553,351
7.6569,299
7.6595,273
7.6612,284
7.663,327
7.6647,379
7.6665,409
7.6683,401
7.67,360
7.6734,306
7.6755,269
7.6765,266
7.6783,299
7.6801,352
7.6835,392
7.6855,397
7.6868,365
7.6896,310
7.6913,264
7.6934,249
7.6945,271
7.6962,318
7.698,366
7.7016,384
7.7033,364
7.7054,316
7.7065,266
7.7082,239
7.7099,248
7.7133,290
7.7149,341
7.7167,371
7.7184,364
7.7202,322
7.7219,269
7.7254,231
7.7272,229
7.7289,263
7.7306,315
7.7323,357
7.734,365
7.7373,333
7.739,282
7.7407,237
7.7424,222
7.7441,245
7.7475,294
7.7492,344
7.7509,366
7.7526,349
7.7549,303
7.7566,255
7.7593,231
7.761,244
7.7626,290
7.7643,347
7.766,382
7.7695,379
7.7711,343
7.7727,293
7.7744,260
7.776,261
7.7792,299
7.7808,355
7.7825,399
7.7842,410
7.7859,383
7.7893,334
7.7909,292
7.7926,280
7.7943,306
7.796,359
7.7994,409
7.8015,431
7.8026,414
7.8043,371
7.8059,321
7.8093,296
7.811,309
7.8127,355
7.8144,408
7.816,441
7.8195,436
7.8212,397
7.8234,345
7.8245,308
7.8263,307
7.8281,342
7.8299,396
7.8329,439
7.8346,446
7.8363,418
7.8381,368
7.8416,322
7.8433,307
7.8451,330
7.8472,381
7.8482,428
7.8499,448
7.8533,430
7.8548,385
7.8566,335
7.8583,308
7.8601,318
7.8635,362
7.865,413
7.8662,443
7.868,437
7.8716,399
7.8726,347
7.8743,310
7.8761,308
7.8795,343
7.8806,396
7.8824,437
7.8841,444
7.8875,415
7.8894,365
7.8912,319
7.893,304
7.8952,327
7.8962,377
7.898,426
7.9015,446
7.9031,428
7.9049,383
7.9066,332
7.9083,305
7.91,315
7.9119,359
7.9153,410
7.917,442
7.9188,437
7.9205,399
7.9223,347
7.9241,309
7.9271,306
7.9288,340
7.9305,393
7.9322,434
7.9355,442
7.9372,412
7.9389,362
7.9406,315
7.9426,301
7.9453,323
7.947,375
7.9487,423
7.9505,443
7.9522,426
7.9539,380
7.9573,329
7.959,301
7.9607,311
7.9624,355
7.9641,408
7.9675,441
7.9691,437
7.9707,399
7.9725,348
7.9741,311
7.9775,308
7.9791,342
7.9808,396
7.9826,438
7.9843,446
7.986,417
7.9893,368
7.991,321
7.9927,304
7.9944,326
7.9962,376
7.9995,424
8.0013,445
8.0029,427
8.005,382
8.0077,331
8.0095,303
8.0113,312
8.0129,356
8.0146,408
8.0162,440
8.0179,437
8.0215,399
8.0225,346
8.0243,307
8.0261,302
8.0297,334
8.0314,386
8.0336,427
8.0349,435
8.0377,405
8.0395,354
8.0416,308
8.0426,292
8.0443,314
8.0461,364
8.0495,413
8.0511,433
8.0532,414
8.0542,365
8.0573,310
8.0595,279
8.0606,284
8.0623,324
8.0641,377
8.0676,410
8.0698,408
8.0708,373
8.0728,323
8.0756,286
8.0774,284
8.0795,317
8.0812,370
8.0829,413
8.0851,422
8.0861,394
8.0897,345
8.0914,299
8.0936,283
8.0949,305
8.0977,355
8.0995,405
8.1017,428
8.1031,413
8.1041,370
8.1076,320
8.1093,295
8.111,306
8.1128,351
8.1157,405
8.1174,440
8.1188,437
8.1205,399
8.1223,349
8.124,310
8.1274,305
8.129,338
8.1308,390
8.1325,431
8.1342,440
8.136,413
8.1394,363
8.1414,316
8.1435,299
8.1446,320
8.1472,370
8.1488,419
8.1504,442
8.1536,426
8.155,380
8.1567,325
8.1584,290
8.1601,287
8.1635,316
8.1653,354
8.1668,368
8.1685,341
8.1716,277
8.1734,197
8.1751,131
8.1769,105
8.1786,127
8.1802,181
8.1832,233
8.1849,259
8.1866,252
8.1882,226
8.19,209
8.1934,232
8.1951,299
8.1969,384
8.1986,452
8.2004,480
8.2022,461
8.2039,405
8.2074,340
8.2094,298
8.2105,298
8.2122,335
8.214,387
8.2176,422
8.2193,422
8.221,388
8.2228,338
8.2245,302
8.2262,298
8.2296,331
8.2314,383
8.2331,425
8.2348,435
8.2366,407
8.2384,358
8.2401,310
8.2437,293
8.2457,312
8.2507,361
8.2507,411
8.2519,433
8.2535,417
8.2552,372
8.2569,319
8.2585,289
8.2616,297
8.2634,338
8.2651,391
8.2669,425
8.2686,421
8.2704,384
8.2721,331
8.2739,291
8.2773,286
8.279,316
8.2807,368
8.2824,411
8.2842,422
8.2875,395
8.2893,345
8.2909,298
8.2926,280
8.2944,300
8.2961,347
8.2994,396
8.3015,418
8.3025,401
8.3043,357
8.306,305
8.3096,276
8.3113,283
8.313,324
8.3148,378
8.3166,412
8.3183,410
8.3201,373
8.3236,318
8.3253,279
8.3271,272
8.3289,301
8.3306,352
8.3324,396
8.3355,406
8.3372,379
8.3392,327
8.3403,280
8.342,260
8.3453,278
8.347,325
8.3487,375
8.3504,396
8.3521,381
8.3554,334
8.3574,281
8.3584,251
8.3601,256
8.3635,295
8.3648,348
8.3665,383
8.3682,380
8.37,342
8.373,289
8.3747,246
8.3764,238
8.3781,267
8.3814,317
8.383,361
8.3847,372
8.3864,344
8.3895,292
8.3912,243
8.393,223
8.3947,240
8.3965,286
8.3996,337
8.4014,361
8.4031,345
8.405,299
8.4061,249
8.4095,218
8.4115,225
8.4125,265
8.4143,317
8.4161,355
8.4197,355
8.421,319
8.4227,269
8.4245,233
8.4262,229
8.4279,262
8.4313,318
8.433,368
8.4348,383
8.4374,362
8.4395,315
8.4405,273
8.4423,258
8.4439,280
8.4473,330
8.449,385
8.4507,413
8.4525,402
8.4543,360
8.456,311
8.4594,284
8.4614,293
8.4624,336
8.4641,392
8.4659,429
8.4687,430
8.47,396
8.4734,347
8.4755,307
8.4765,302
8.4782,333
8.4815,386
8.4835,430
8.4845,443
8.4861,417
8.4894,370
8.4911,324
8.4927,306
8.4943,325
8.496,375
8.4992,424
8.5008,449
8.5025,435
8.5043,392
8.5061,341
8.5095,309
8.5112,315
8.5129,355
8.5147,408
8.5171,443
8.5194,442
8.5215,407
8.5225,357
8.5243,315
8.5277,308
8.5293,338
8.531,390
8.5328,435
8.5346,447
8.5363,422
8.538,373
8.5414,325
8.543,305
8.5446,323
8.5463,370
8.548,420
8.5511,444
8.5528,430
8.5544,386
8.5562,335
8.558,303
8.5614,309
8.5634,350
8.5644,401
8.5662,437
8.5695,436
8.5712,401
8.5729,349
8.5746,307
8.5762,299
8.5779,328
8.5812,382
8.5829,427
8.5844,440
8.5875,416
8.5891,367
8.5912,319
8.5927,299
8.5953,317
8.5971,364
8.5987,414
8.6004,439
8.602,425
8.6054,382
8.607,330
8.6087,299
8.6105,304
8.6123,343
8.6139,396
8.6172,432
8.6188,432
8.6205,397
8.6222,345
8.6239,303
8.6267,296
8.6284,326
8.63,378
8.6333,424
8.6349,438
8.6365,414
8.6382,366
8.64,319
8.6433,299
8.645,317
8.6467,365
8.6492,415
8.6515,441
8.6535,427
8.6553,384
8.6563,332
8.658,301
8.6612,306
8.6629,346
8.6645,398
8.6662,435
8.6695,436
8.6709,402
8.6727,352
8.6744,311
8.6762,303
8.6791,332
8.6807,383
8.6823,428
8.6841,441
8.6874,417
8.6891,369
8.6908,321
8.6925,301
8.6954,318
8.6971,365
8.6988,416
8.7005,442
8.7021,428
8.7054,384
8.7072,330
8.7088,297
8.7105,300
8.7134,339
8.7156,391
8.7166,426
8.7201,427
8.7215,393
8.7235,341
8.7245,300
8.7276,291
8.729,317
8.731,366
8.732,407
8.735,418
8.7375,391
8.7387,340
8.7414,291
8.7435,271
8.7445,290
8.7462,339
8.7493,393
8.751,421
8.7524,410
8.7552,368
8.7574,317
8.7591,285
8.7614,289
8.7636,327
8.7648,380
8.7675,418
8.7688,420
8.7705,387
8.7721,335
8.7748,294
8.7765,287
8.7793,317
8.7809,371
8.7834,419
8.7847,436
8.7875,416
8.7892,370
8.7909,324
8.7927,304
8.7943,321
8.796,368
8.7993,417
8.801,442
8.8027,431
8.8043,389
8.8072,337
8.809,305
8.8107,308
8.8124,348
8.814,400
8.8173,438
8.8194,440
8.8205,407
8.8233,357
8.8251,315
8.8269,306
8.8286,334
8.8302,386
8.8319,429
8.8351,439
8.8376,407
8.8382,346
8.8399,283
8.8434,245
8.8457,242
8.8471,265
8.8481,291
8.8517,292
8.8534,259
8.8555,204
8.8582,152
8.8596,124
8.861,139
8.8631,196
8.8655,270
8.8671,334
8.869,372
8.8715,383
8.8725,370
8.8743,353
8.8774,352
8.8789,377
8.8805,416
8.8823,447
8.8855,447
8.8876,413
8.8891,359
8.8901,307
8.8936,286
8.895,305
8.8966,355
8.8983,409
8.9017,439
8.9036,430
8.9056,389
8.9075,338
8.9098,305
8.9108,309
8.913,347
8.9158,399
8.9171,436
8.9189,438
8.9211,405
8.9222,354
8.9253,311
8.9274,302
8.9285,329
8.9302,381
8.9332,428
8.9354,443
8.9369,420
8.9397,372
8.9411,321
8.9421,299
8.9456,313
8.9475,359
8.9489,410
8.9515,437
8.9526,426
8.9543,385
8.9579,331
8.9593,297
8.9617,300
8.9634,337
8.9645,390
8.9677,427
8.969,429
8.9718,396
8.9736,343
8.9754,299
8.9771,286
8.9788,312
8.9807,363
8.9835,408
8.9852,423
8.987,400
8.9887,352
8.9905,300
8.9922,277
8.9939,291
8.9971,336
8.9987,388
9.0005,416
9.0022,404
9.004,361
9.0074,308
9.0091,274
9.0108,275
9.0126,312
9.0146,366
9.0173,404
9.019,407
9.0206,374
9.0223,321
9.024,278
9.0272,266
9.0288,291
9.0304,339
9.0321,385
9.0354,400
9.037,377
9.0386,326
9.0403,277
9.0419,252
9.045,266
9.0465,311
9.0482,363
9.0515,390
9.0531,379
9.0547,335
9.0564,282
9.058,247
9.0612,247
9.0629,281
9.0646,333
9.0662,371
9.0694,373
9.0711,338
9.0727,285
9.0744,240
9.076,228
9.079,252
9.0806,301
9.0822,349
9.0855,365
9.087,341
9.0888,292
9.0905,244
9.0921,221
9.0953,236
9.0969,282
9.0986,336
9.1002,369
9.1035,362
9.1052,322
9.1069,275
9.1085,245
9.1102,251
9.1136,292
9.1152,351
9.117,396
9.1188,405
9.1206,378
9.1223,331
9.1239,291
9.1272,283
9.1287,311
9.1304,365
9.132,413
9.1354,432
9.1367,413
9.1384,369
9.1401,321
9.1433,300
9.1445,317
9.1462,366
9.1493,419
9.1511,450
9.1528,443
9.1545,403
9.1562,353
9.1579,318
9.1613,320
9.163,359
9.1646,411
9.1662,450
9.1679,455
9.1716,424
9.1726,375
9.1745,332
9.1772,321
9.1796,348
9.1806,398
9.1833,444
9.1849,461
9.1866,441
9.1894,394
9.191,345
9.1927,320
9.1939,335
9.1974,381
9.1988,431
9.2008,460
9.2038,453
9.2051,412
9.2074,362
9.2093,327
9.2113,328
9.2134,366
9.2155,419
9.2172,458
9.2189,463
9.2206,431
9.2223,381
9.2241,337
9.2275,324
9.2292,351
9.2309,402
9.2326,448
9.2354,466
9.2371,446
9.2388,399
9.2405,350
9.2421,324
9.2439,337
9.2472,381
9.249,431
9.2506,460
9.2524,452
9.2541,411
9.2575,360
9.2591,323
9.2608,323
9.2624,361
9.2641,412
9.267,452
9.2682,457
9.2712,425
9.273,375
9.2746,331
9.2763,317
9.2793,343
9.2809,394
9.2825,440
9.2842,458
9.2875,439
9.2892,393
9.291,344
9.2927,318
9.2944,331
9.2961,375
9.2994,426
9.301,455
9.3027,446
9.3043,406
9.306,355
9.3094,319
9.311,318
9.3126,355
9.3157,407
9.3173,446
9.3188,450
9.3222,419
9.3222,369
9.3256,324
9.3275,311
9.3294,335
9.3321,385
9.3331,432
9.3347,449
9.3374,429
9.339,383
9.3411,333
9.3421,308
9.3453,321
9.3469,367
9.3486,418
9.3503,447
9.3538,440
9.3555,399
9.3572,347
9.3589,311
9.3607,311
9.3628,347
9.3638,399
9.3672,439
9.3689,445
9.3706,414
9.3731,365
9.3753,321
9.3769,308
9.3786,333
9.3808,384
9.3819,432
9.3852,450
9.3869,431
9.3886,384
9.3903,333
9.392,306
9.3948,316
9.3965,359
9.3982,409
9.4016,437
9.4037,430
9.4047,390
9.4065,338
9.4083,302
9.4099,301
9.4133,335
9.415,386
9.4166,422
9.4183,424
9.42,390
9.4233,334
9.4249,287
9.4273,271
9.4278,295
9.4312,346
9.4329,395
9.4345,416
9.4361,400
9.4395,356
9.4412,306
9.4424,282
9.4442,295
9.446,341
9.4493,394
9.451,426
9.4527,420
9.4543,380
9.457,327
9.4595,291
9.4676,289
9.4676,324
9.4676,379
9.4676,422
9.4703,430
9.4713,403
9.4737,356
9.4757,312
9.4771,301
9.4795,327
9.4817,378
9.4832,426
9.4849,444
9.4873,425
9.4891,379
9.4909,327
9.493,301
9.4939,312
9.4975,357
9.4986,409
9.5003,439
9.502,432
9.5054,391
9.5068,338
9.5084,301
9.5102,299
9.5119,333
9.5152,385
9.5168,426
9.5185,432
9.5201,399
9.5231,344
9.5248,289
9.5265,262
9.5281,270
9.5315,301
9.5331,328
9.5348,324
9.5365,279
9.5382,207
9.54,135
9.5435,95
9.5452,105
9.5469,154
9.5486,219
9.5503,271
9.5537,288
9.5555,275
9.5575,257
9.5586,265
9.5603,303
9.5637,365
9.5655,427
9.5672,467
9.5693,463
9.5703,419
9.5721,353
9.5756,295
9.5773,273
9.5789,293
9.5812,344
9.5823,396
9.584,419
9.5875,404
9.5893,360
9.5911,310
9.5927,285
9.5945,297
9.5963,341
9.598,394
9.6015,426
9.6034,421
9.607,382
9.607,330
9.61,294
9.611,292
9.6125,325
9.6143,378
9.6177,419
9.6187,428
9.6205,399
9.6223,349
9.624,303
9.6273,287
9.6291,309
9.6308,358
9.6325,406
9.6342,426
9.636,407
9.6395,361
9.6411,309
9.6428,282
9.6446,293
9.6462,335
9.6493,388
9.651,419
9.6528,413
9.6549,373
9.6559,320
9.6593,283
9.661,281
9.6627,313
9.6644,366
9.6662,407
9.668,413
9.6716,383
9.6733,331
9.675,286
9.6767,270
9.6784,293
9.6812,342
9.6835,391
9.6849,411
9.687,393
9.688,345
9.6916,293
9.6926,266
9.6943,274
9.6977,315
9.6987,367
9.7005,399
9.7036,394
9.7057,355
9.7067,302
9.7084,264
9.7118,260
9.7128,292
9.7149,342
9.7177,384
9.7198,391
9.7208,361
9.7234,308
9.7256,262
9.7274,245
9.7288,265
9.7306,312
9.7337,362
9.7358,383
9.7372,364
9.7382,316
9.7418,265
9.7431,236
9.7449,243
9.7471,284
9.7499,334
9.7513,369
9.753,363
9.7558,321
9.7577,269
9.7594,229
9.7615,223
9.7626,254
9.7643,305
9.7661,347
9.7696,356
9.7713,326
9.7731,275
9.7748,229
9.7765,213
9.7794,234
9.7812,282
9.7828,332
9.7846,357
9.7877,341
9.7895,298
9.7913,250
9.793,225
9.7947,236
9.7965,282
9.7996,339
9.8016,378
9.8027,379
9.8058,345
9.8076,296
9.8086,262
9.8104,262
9.8122,297
9.814,353
9.8174,400
9.8191,412
9.8209,387
9.8226,339
9.8244,296
9.8262,282
9.8279,306
9.8313,358
9.8329,409
9.8346,434
9.8363,419
9.838,376
9.8398,326
9.8433,300
9.8454,310
9.8474,354
9.8474,407
9.8504,440
9.8524,437
9.8544,400
9.8575,348
9.8595,309
9.8595,305
9.8635,339
9.8655,392
9.8676,435
9.8676,445
9.8716,418
9.8734,369
9.8754,322
9.8774,305
9.8794,326
9.8814,376
9.8834,425
9.8834,448
9.8875,432
9.8892,388
9.8892,337
9.8892,308
9.8892,318
9.8892,361
9.8892,413
9.8892,447
9.8892,444
9.9049,407
9.9049,356
9.9049,317
9.9049,312
9.9134,344
9.9148,395
9.9148,437
9.9148,445
9.9209,417
9.9209,367
9.9241,319
9.9261,302
9.9291,323
9.9315,373
9.9335,422
9.9335,445
9.9368,430
9.9368,387
9.94,337
9.94,308
9.9449,316
9.9449,359
9.9449,410
9.9449,443
9.9449,440
9.9552,404
9.9575,353
9.9575,314
9.9607,309
9.9607,342
9.9607,393
9.9607,436
9.9607,445
9.9607,417
9.9607,367
9.9754,319
9.9764,301
9.9764,321
9.9814,371
9.9814,420
9.9814,442
9.9814,427
9.9814,382
9.9814,330
9.9925,301
9.9925,309
9.9925,350
9.9925,403
9.9925,436
9.9925,433
10.0046,396
10.0046,345
10.0086,305
10.0086,299
10.0132,331
10.0132,384
10.0162,427
10.0162,438
10.0162,411
10.0162,363
10.0255,315
10.0255,296
10.0255,315
10.0255,364
10.0326,413
10.0326,435
10.0326,421
10.0326,378
10.0403,327
10.0403,298
10.0403,306
10.0403,348
10.0403,401
10.0403,435
10.0403,433
10.0549,396
10.056,344
10.0583,305
10.0612,299
10.0612,330
10.0641,382
10.0641,426
10.0685,437
10.0702,412
10.072,364
10.072,317
10.072,299
10.072,319
10.0815,367
10.0815,417
10.0815,441
10.0877,425
10.0877,379
10.0877,327
10.0926,295
10.0926,300
10.0926,340
10.0926,391
10.1013,424
10.1034,422
10.1034,385
10.1034,333
10.1087,293
10.1087,286
10.1087,315
10.1144,365
10.1168,405
10.119,413
10.1211,384
10.1231,331
10.1231,283
10.1231,265
10.1297,286
10.1297,336
10.1327,391
10.1347,417
10.1347,405
10.1383,363
10.1404,312
10.1424,282
10.1444,289
10.1465,328
10.1485,382
10.1505,417
10.1505,415
10.1505,381
10.1505,329
10.1505,290
10.1612,284
10.1622,316
10.1638,371
10.167,417
10.1686,431
10.1702,408
10.1717,362
10.1717,316
10.1717,299
10.1717,318
10.1717,367
10.1831,417
10.1831,442
10.1831,428
10.1831,385
10.1831,333
10.1831,302
10.1831,308
10.1831,348
10.1991,400
10.1991,435
10.1991,434
10.1991,398
10.1991,347
10.1991,306
10.1991,299
10.1991,329
10.2151,382
10.2175,425
10.2175,433
10.2175,401
10.2175,339
10.2175,277
10.2175,241
10.2175,239
10.231,263
10.231,287
10.231,286
10.231,250
10.231,192
10.231,138
10.231,111
10.231,125
10.2463,183
10.2483,257
10.2504,317
10.2524,350
10.2544,358
10.2564,351
10.2584,341
10.2604,347
10.2622,377
10.2622,417
10.2622,446
10.2622,443
10.271,405
10.271,346
10.271,294
10.271,273
10.2793,291
10.2793,342
10.2818,396
10.2818,424
10.2818,414
10.2885,372
10.2905,321
10.2925,292
10.294,297
10.2961,336
10.2981,390
10.3001,427
10.3021,427
10.3021,393
10.3055,342
10.3096,301
10.3116,294
10.3116,323
10.3136,375
10.3176,418
10.3176,431
10.3217,406
10.3237,357
10.3254,308
10.3265,288
10.3286,305
10.3306,352
10.3326,402
10.3346,427
10.3367,414
10.3367,371
10.3412,318
10.3427,286
10.3448,291
10.3448,329
10.3448,382
10.3448,418
10.3448,418
10.3448,383
10.3571,330
10.3571,289
10.3571,281
10.3571,309
10.3571,362
10.3571,407
10.3571,420
10.3571,396
10.373,347
10.373,298
10.373,277
10.373,294
10.373,340
10.3821,391
10.3821,417
10.3821,405
10.3889,361
10.3889,309
10.3889,276
10.3889,280
10.3889,317
10.3889,370
10.3889,405
10.3889,404
10.4045,368
10.4045,314
10.4045,273
10.4045,264
10.4045,292
10.4045,343
10.4045,388
10.4045,400
10.4206,374
10.4206,322
10.4206,272
10.4206,250
10.4206,265
10.4206,309
10.4206,361
10.4206,385
10.4363,372
10.4389,326
10.4409,274
10.4409,240
10.4409,242
10.4409,278
10.4409,329
10.4409,366
10.4522,366
10.4522,328
10.4522,275
10.4522,232
10.4522,221
10.463,248
10.463,298
10.463,344
10.4701,359
10.4701,335
10.4722,286
10.4742,238
10.4742,217
10.4742,234
10.4742,280
10.4821,333
10.4839,363
10.4839,354
10.4889,313
10.491,264
10.493,235
10.493,242
10.493,285
10.4996,343
10.4996,386
10.4996,392
10.4996,361
10.4996,312
10.4996,275
10.4996,269
10.5134,301
10.5155,357
10.5155,406
10.5155,424
10.5155,404
10.5155,358
10.5155,311
10.5155,291
10.5155,309
10.5315,358
10.5315,411
10.5315,441
10.5315,432
10.5315,393
10.5315,344
10.5315,313
10.5315,317
10.5474,358
10.5474,411
10.5474,449
10.5474,452
10.5474,419
10.5474,369
10.5474,327
10.5474,318
10.5631,347
10.5641,399
10.5641,445
10.5641,461
10.5641,438
10.5641,390
10.5641,343
10.5641,320
10.5788,336
10.5788,383
10.5823,432
10.5823,459
10.5823,448
10.5823,406
10.5823,354
10.5823,319
10.5945,321
10.5945,359
10.5945,410
10.5945,447
10.5945,448
10.5945,414
10.5945,364
10.5945,320
10.6102,310
10.6102,339
10.6148,392
10.6164,439
10.6196,455
10.6211,433
10.6228,385
10.6244,337
10.6261,314
10.628,329
10.63,375
10.63,426
10.6346,452
10.6377,441
10.6393,399
10.641,347
10.6426,313
10.644,315
10.6474,353
10.649,406
10.6507,444
10.6524,447
10.6544,416
10.6573,366
10.6589,323
10.6606,312
10.6622,338
10.6655,389
10.6671,435
10.6687,450
10.6702,427
10.6733,379
10.6749,329
10.6765,305
10.6795,320
10.6808,366
10.6824,416
10.6842,445
10.6859,435
10.6896,395
10.6909,344
10.6926,309
10.6944,311
10.6961,349
10.6995,401
10.7011,439
10.7028,442
10.7048,409
10.7075,358
10.7092,315
10.7109,305
10.7127,332
10.7144,383
10.716,429
10.7194,445
10.721,424
10.7228,376
10.7245,326
10.7262,302
10.728,316
10.7311,362
10.7328,413
10.7345,441
10.7376,432
10.7389,392
10.7409,342
10.7432,308
10.7455,309
10.7476,347
10.7487,399
10.7507,436
10.7535,437
10.7553,404
10.7576,354
10.7595,310
10.7616,299
10.7633,325
10.7655,377
10.7675,423
10.7695,438
10.7705,417
10.7723,370
10.774,320
10.7773,298
10.7791,312
10.7808,358
10.7823,410
10.7854,438
10.7877,429
10.7887,387
10.7904,334
10.7922,298
10.7951,298
10.7968,334
10.7984,387
10.8015,426
10.8029,429
10.8045,396
10.8063,345
10.808,302
10.8098,289
10.8131,314
10.8148,365
10.8167,410
10.8191,424
10.8207,400
10.8224,350
10.8241,297
10.8274,272
10.8291,286
10.8308,331
10.8325,385
10.8342,415
10.8374,408
10.8391,368
10.8407,315
10.8424,282
10.844,283
10.8473,319
10.8493,374
10.8503,414
10.852,419
10.8554,388
10.857,337
10.8586,293
10.8603,282
10.862,309
10.8653,360
10.8671,409
10.8687,428
10.8704,410
10.872,364
10.8752,315
10.877,293
10.8787,306
10.8804,352
10.8826,404
10.8854,433
10.8873,425
10.8883,386
10.8912,333
10.8937,298
10.8942,298
10.8975,334
10.8996,388
10.9013,427
10.9036,433
10.9046,401
10.9064,350
10.9081,307
10.9099,296
10.9136,321
10.9158,372
10.9176,418
10.9194,433
10.9212,406
10.9229,349
10.9247,286
10.9263,246
10.928,239
10.9315,260
10.9332,285
10.9349,286
10.9366,249
10.9383,184
10.94,116
10.9435,75
10.9452,78
10.947,127
10.9487,201
10.9504,267
10.952,305
10.9553,318
10.957,319
10.959,318
10.9601,332
10.9634,367
10.9652,413
10.967,449
10.9687,452
10.9704,419
10.9721,361
10.9738,303
10.9772,275
10.9793,288
10.9808,333
10.9829,389
10.9846,422
10.9861,417
10.9894,379
10.9911,327
10.9927,293
10.9943,293
10.9976,328
10.9993,381
11.001,420
11.0027,426
11.0043,395
11.0073,345
11.0094,301
11.0104,289
11.0121,313
11.0155,364
11.0172,412
11.019,431
11.0213,411
11.0223,364
11.0241,312
11.0274,286
11.0291,297
11.0308,341
11.0325,393
11.0342,423
11.0376,415
11.0386,375
11.0402,322
11.0419,286
11.0454,286
11.047,320
11.0486,372
11.0502,413
11.0535,418
11.0555,387
11.0566,335
11.0582,291
11.06,276
11.0634,300
11.0651,349
11.0669,396
11.0686,414
11.0716,394
11.0742,347
11.0742,295
11.0775,269
11.0792,280
11.081,323
11.0831,375
11.0842,406
11.0876,398
11.089,358
11.0906,304
11.0924,269
11.0954,267
11.0971,301
11.0988,354
11.1005,394
11.1026,400
11.1056,368
11.1076,315
11.1096,270
11.1102,255
11.1137,279
11.1158,327
11.1176,377
11.1181,396
11.1214,377
11.1236,328
11.1246,278
11.1263,251
11.1297,260
11.1315,302
11.1337,353
11.1348,383
11.1365,376
11.1387,334
11.1414,281
11.1432,244
11.145,242
11.1466,276
11.1483,327
11.1499,369
11.1533,374
11.155,342
11.1567,288
11.1588,242
11.1616,225
11.1637,247
11.1647,294
11.1663,343
11.1681,364
11.1718,344
11.1729,296
11.1745,246
11.1762,220
11.1795,230
11.1812,275
11.183,329
11.1842,365
11.1875,362
11.1893,324
11.191,275
11.1927,242
11.1944,244
11.196,281
11.1978,339
11.2012,386
11.2028,399
11.2044,374
11.2061,326
11.2093,286
11.211,274
11.2126,300
11.2143,354
11.2159,406
11.2194,429
11.2218,414
11.2235,371
11.2254,323
11.2276,300
11.2293,314
11.2309,361
11.232,416
11.235,450
11.2367,446
11.2384,409
11.2414,360
11.243,323
11.2447,322
11.2461,359
11.2493,411
11.2509,453
11.2535,461
11.2546,433
11.2571,385
11.2587,342
11.2603,328
11.262,353
11.2653,402
11.2669,450
11.2685,470
11.2715,453
11.2737,408
11.2748,359
11.2765,331
11.2781,341
11.2816,385
11.2832,437
11.2848,469
11.2865,464
11.2882,425
11.2899,375
11.2932,338
11.2948,336
11.2965,371
11.2982,424
11.3011,466
11.3028,474
11.3045,446
11.3061,396
11.3094,351
11.3111,334
11.3129,357
11.3146,406
11.3163,454
11.318,475
11.3213,458
11.3231,412
11.3248,363
11.3265,334
11.3282,344
11.3316,387
11.3333,438
11.335,470
11.3367,464
11.3384,426
11.3401,375
11.3434,336
11.3449,333
11.3465,367
11.3481,419
11.3515,461
11.3528,469
11.3543,440
11.3559,389
11.3592,343
11.3609,326
11.3625,350
11.3643,399
11.366,447
11.3695,467
11.3712,451
11.373,405
11.375,355
11.376,326
11.3793,337
11.381,379
11.3832,431
11.3842,463
11.3876,458
11.3893,420
11.3909,370
11.3932,332
11.3949,329
11.3966,364
11.3983,415
11.4012,458
11.4024,467
11.4055,439
11.4071,389
11.4089,343
11.4107,326
11.4122,349
11.4139,397
11.4173,445
11.4189,466
11.4203,450
11.4234,405
11.4255,356
11.4265,326
11.4281,335
11.4298,378
11.4333,429
11.4349,461
11.4366,457
11.4382,420
11.4415,370
11.4432,331
11.4448,327
11.4464,360
11.4481,410
11.4513,451
11.453,460
11.4546,432
11.4563,382
11.4581,335
11.4614,317
11.463,339
11.4646,388
11.4663,437
11.4692,460
11.4708,444
11.4725,399
11.4743,349
11.4759,320
11.4792,328
11.4809,370
11.4825,421
11.484,454
11.4874,449
11.489,411
11.4907,358
11.4924,319
11.4947,314
11.4976,347
11.4986,398
11.5015,439
11.5032,449
11.5051,420
11.5062,369
11.5095,321
11.5109,302
11.5121,321
11.5153,367
11.517,412
11.5187,431
11.5208,412
11.5236,366
11.5253,313
11.5269,286
11.5286,296
11.5304,339
11.5333,393
11.5349,428
11.5369,426
11.5379,390
11.5414,338
11.5431,299
11.5448,294
11.5465,326
11.5482,379
11.5516,421
11.5528,431
11.5546,404
11.5563,354
11.558,308
11.5598,291
11.5632,313
11.5649,363
11.5666,415
11.5692,439
11.5715,426
11.5733,383
11.5745,333
11.5762,303
11.5779,311
11.5811,352
11.5828,404
11.5844,438
11.5874,436
11.5891,400
11.5909,348
11.5927,308
11.5945,303
11.5962,334
11.5979,385
11.6014,427
11.603,438
11.6051,411
11.6061,362
11.6094,314
11.611,296
11.6126,315
11.6143,361
11.6173,406
11.619,420
11.6207,392
11.6225,331
11.6241,263
11.6274,213
11.629,195
11.6306,207
11.6318,230
11.6352,239
11.6369,221
11.6385,181
11.6414,134
11.643,106
11.6447,118
11.6463,170
11.6493,249
11.6515,333
11.6525,395
11.6542,411
11.656,387
11.6594,351
11.6614,329
11.663,340
11.664,375
11.6674,410
11.6692,422
11.6709,400
11.6726,353
11.6742,301
11.6759,274
11.6791,283
11.6802,326
11.682,383
11.6852,421
11.6871,420
11.6882,385
11.6915,334
11.6932,294
11.6948,288
11.6965,320
11.698,373
11.7014,418
11.7036,429
11.7046,403
11.7064,353
11.708,305
11.7114,286
11.7131,305
11.7149,353
11.7165,403
11.7182,426
11.7216,411
11.7233,367
11.7249,315
11.7265,285
11.7293,292
11.7311,333
11.7329,387
11.7345,422
11.7361,420
11.7394,384
11.7411,331
11.7428,291
11.7445,284
11.7462,314
11.7495,365
11.7507,407
11.7523,417
11.7554,390
11.7576,339
11.7582,291
11.7615,272
11.7632,291
11.7649,338
11.7666,388
11.7683,412
11.77,398
11.7733,354
11.775,301
11.7767,271
11.7784,277
11.78,316
11.7834,370
11.785,404
11.7866,402
11.7883,365
11.7912,312
11.7924,272
11.7941,265
11.7975,295
11.7992,348
11.8012,392
11.8022,405
11.8052,378
11.8069,327
11.8086,279
11.8103,257
11.8119,274
11.8154,319
11.817,370
11.8187,394
11.8203,379
11.8234,334
11.8251,281
11.8268,250
11.8294,254
11.8314,293
11.8331,346
11.8347,383
11.8364,382
11.838,344
11.8414,289
11.8431,247
11.8446,238
11.8462,266
11.8479,316
11.8514,362
11.853,374
11.8551,348
11.8561,298
11.8594,251
11.8611,231
11.8628,248
11.8645,295
11.8662,347
11.8679,373
11.8713,361
11.8731,316
11.8747,266
11.8764,236
11.878,242
11.8814,282
11.8831,337
11.8846,377
11.8864,380
11.888,347
11.8914,298
11.8928,262
11.8946,259
11.8976,292
11.8992,349
11.9009,400
11.9026,418
11.9047,397
11.9074,352
11.9091,306
11.9107,288
11.9123,309
11.9139,359
11.9171,412
11.9187,440
11.9204,431
11.9221,390
11.9253,340
11.9269,310
11.9286,316
11.9303,359
11.9319,413
11.9353,451
11.937,454
11.9387,421
11.9404,372
11.9434,330
11.9447,323
11.9464,355
11.948,407
11.9513,453
11.9529,469
11.9546,447
11.9563,400
11.9579,355
11.961,334
11.9626,353
11.9643,399
11.9659,449
11.9692,474
11.9705,462
11.9722,419
11.9752,368
11.9768,335
11.9785,339
11.9801,379
11.9834,431
11.985,468
11.9867,470
11.9885,436
11.9902,385
11.992,344
11.9952,334
11.9969,364
11.9986,415
12.0003,459
12.0019,472
12.0053,449
12.0065,402
12.0082,355
12.0115,332
12.0133,349
12.0151,395
12.0167,445
12.0184,472
12.02,462
12.0234,420
12.025,370
12.0266,336
12.0283,339
12.0299,378
12.0333,429
12.0349,466
12.0366,467
12.0383,432
12.0401,382
12.0433,339
12.0449,329
12.0465,358
12.0482,407
12.0499,451
12.0532,465
12.0549,440
12.0567,391
12.0584,343
12.0601,319
12.0618,336
12.0652,383
12.0668,433
12.0684,460
12.0713,449
12.0731,407
12.0747,357
12.0764,324
12.078,327
12.0815,368
12.0831,421
12.0849,459
12.0862,461
12.0879,428
12.0913,377
12.093,334
12.094,323
12.0975,351
12.0989,401
12.1005,446
12.1037,460
12.1045,438
12.1074,390
12.109,341
12.1107,319
12.1123,336
12.114,383
12.1173,434
12.1189,460
12.1207,449
12.1232,407
12.1253,355
12.127,319
12.1287,322
12.1303,361
12.132,412
12.1353,450
12.1371,452
12.1387,418
12.1404,368
12.1432,326
12.1449,316
12.1465,344
12.1495,395
12.1511,440
12.1529,455
12.1546,431
12.1563,383
12.1579,333
12.1614,310
12.163,326
12.1647,372
12.1663,423
12.1695,450
12.1711,439
12.1728,397
12.1744,346
12.1761,311
12.1794,312
12.1807,350
12.1824,401
12.1851,437
12.1873,437
12.1891,403
12.1909,350
12.1926,305
12.1943,295
12.1959,322
12.1995,374
12.2017,420
12.203,435
12.2051,410
12.2068,360
12.2092,306
12.2114,280
12.213,292
12.2153,336
12.2169,388
12.2196,417
12.2212,409
12.2228,370
12.2243,318
12.226,286
12.2295,289
12.2312,326
12.2329,379
12.2354,416
12.2368,418
12.2393,385
12.2407,333
12.242,291
12.2448,281
12.2472,307
12.2494,360
12.2511,407
12.2527,425
12.2544,405
12.2569,359
12.2586,312
12.2616,292
12.2629,308
12.2654,356
12.2668,408
12.2684,436
12.2716,426
12.2727,385
12.2755,332
12.2772,296
12.2784,297
12.2813,334
12.283,387
12.2851,426
12.2874,430
12.2891,397
12.2908,345
12.2926,301
12.2943,289
12.2959,313
12.2993,364
12.3006,410
12.3023,426
12.3048,404
12.307,356
12.3087,302
12.3105,270
12.3122,273
12.3156,302
12.3173,336
12.3187,345
12.3205,310
12.3237,242
12.3252,163
12.3271,103
12.3288,87
12.3313,119
12.3335,176
12.3351,228
12.3364,251
12.3395,240
12.3409,213
12.3426,205
12.3443,239
12.3459,307
12.3493,387
12.351,448
12.3527,466
12.3543,436
12.356,376
12.3592,311
12.3609,276
12.3625,282
12.3642,323
12.3658,375
12.3691,405
12.3707,399
12.3724,361
12.3741,309
12.3758,276
12.3791,278
12.3808,315
12.3825,370
12.3852,410
12.3869,415
12.3886,384
12.3903,333
12.392,290
12.3952,278
12.3969,304
12.3986,356
12.4003,403
12.4021,421
12.4052,400
12.4068,353
12.4085,302
12.4101,278
12.413,292
12.4147,337
12.4163,389
12.4179,419
12.4213,410
12.423,370
12.4246,317
12.4262,282
12.4278,283
12.4312,318
12.4329,372
12.4346,412
12.4362,417
12.4379,385
12.4413,333
12.4429,290
12.4441,277
12.4458,301
12.4491,351
12.4508,398
12.4525,415
12.4541,395
12.4575,347
12.4591,296
12.4604,272
12.4621,284
12.4639,328
12.4673,380
12.4689,410
12.4705,403
12.4722,362
12.4754,309
12.4766,273
12.4783,272
12.4799,307
12.4833,360
12.485,400
12.4866,405
12.4883,373
12.49,320
12.4929,276
12.4945,263
12.4962,287
12.4979,336
12.5012,383
12.5029,401
12.5046,379
12.5063,329
12.5095,278
12.5105,251
12.5122,261
12.5139,303
12.5171,354
12.5189,382
12.5206,373
12.5223,331
12.524,277
12.5273,240
12.529,239
12.5306,273
12.5323,323
12.5339,363
12.5372,367
12.5388,333
12.5405,280
12.5429,235
12.5451,220
12.5467,243
12.5484,292
12.55,340
12.5532,359
12.5549,337
12.5565,288
12.5581,239
12.561,212
12.5627,224
12.5643,268
12.5659,321
12.5692,354
12.571,348
12.5727,309
12.5743,259
12.576,226
12.5793,228
12.581,267
12.5826,324
12.5843,371
12.5876,381
12.5893,355
12.5917,306
12.5922,267
12.594,257
12.5974,285
12.599,339
12.6008,392
12.6024,415
12.6041,401
12.6076,358
12.6093,310
12.611,288
12.6127,302
12.6144,348
12.6178,402
12.6196,436
12.6218,430
12.6228,393
12.6246,342
12.6263,307
12.6296,307
12.6314,344
12.6331,399
12.6348,441
12.6369,450
12.638,421
12.6415,373
12.6431,329
12.6448,316
12.6466,342
12.6483,392
12.6517,440
12.6531,460
12.6553,442
12.6563,396
12.6581,348
12.6615,321
12.6632,333
12.6649,378
12.6666,429
12.6683,460
12.6716,454
12.6734,415
12.6753,364
12.6775,326
12.6787,324
12.6805,359
12.6841,410
12.6862,450
12.6877,457
12.6893,428
12.6905,379
12.6923,333
12.6965,318
12.6976,343
12.7,393
12.7012,440
12.7031,460
12.7049,442
12.7068,396
12.7086,346
12.7104,318
12.7139,330
12.7162,375
12.7173,427
12.7193,458
12.7213,453
12.7241,415
12.7263,363
12.7279,325
12.729,324
12.7309,359
12.7335,411
12.7352,452
12.737,459
12.7391,430
12.7409,381
12.7427,335
12.7446,320
12.7487,344
12.7487,393
12.7521,440
12.7533,460
12.7557,443
12.7576,397
12.7596,346
12.7614,317
12.7638,328
12.7655,371
12.7676,423
12.7692,454
12.7703,449
12.7737,411
12.7756,360
12.7777,322
12.7791,319
12.7801,355
12.7838,407
12.7856,448
12.7873,456
12.7894,429
12.7917,380
12.7928,335
12.7953,321
12.7963,344
12.7998,393
12.8015,441
12.8032,460
12.8049,442
12.8073,397
12.8087,347
12.8109,318
12.8119,328
12.8149,371
12.8175,422
12.8196,453
12.8207,449
12.8231,411
12.8254,359
12.8264,319
12.8284,317
12.8311,352
12.8335,404
12.8345,446
12.8376,454
12.8393,426
12.841,377
12.8432,331
12.8442,315
12.846,338
12.8495,387
12.8513,435
12.8536,455
12.8546,438
12.857,391
12.8598,340
12.8616,311
12.8634,321
12.8652,363
12.8669,415
12.8691,448
12.8718,443
12.8735,405
12.8752,353
12.877,314
12.8786,310
12.8803,344
12.8821,395
12.8855,437
12.8874,445
12.8898,416
12.8915,366
12.8937,319
12.8951,302
12.8964,323
12.8995,372
12.9005,420
12.9038,442
12.9056,425
12.9067,380
12.9085,328
12.9117,298
12.9139,305
12.9149,344
12.9167,393
12.9188,422
12.9216,415
12.9226,377
12.9244,324
12.9261,287
12.9298,285
12.9308,320
12.9325,376
12.9341,419
12.9377,429
12.9391,402
12.9408,353
12.9426,306
12.9442,289
12.9475,310
12.9493,359
12.951,407
12.9528,429
12.9546,414
12.9564,370
12.9581,319
12.9614,292
12.9631,302
12.9648,345
12.9665,399
12.9682,434
12.9716,433
12.9734,396
12.9751,346
12.9767,307
12.9784,303
12.98,335
12.9834,387
12.985,429
12.9872,438
12.9883,411
12.99,362
12.9933,314
12.995,296
12.9966,317
12.9983,366
13.0,415
13.0034,437
13.0051,421
13.0067,377
13.0083,325
13.01,296
13.0128,304
13.0145,344
13.0162,392
13.0195,418
13.0212,402
13.0229,350
13.0245,281
13.0261,223
13.0294,196
13.031,202
13.0327,228
13.0343,248
13.0376,245
13.0394,216
13.0411,170
13.0427,133
13.0444,131
13.0466,169
13.0492,240
13.0509,322
13.0525,391
13.0541,417
13.0573,400
13.0589,362
13.0606,331
13.0618,330
13.0652,358
13.0669,395
13.0685,417
13.0701,406
13.0718,366
13.075,313
13.0766,277
13.0783,275
13.08,309
13.0834,365
13.0851,410
13.0872,421
13.0883,395
13.0899,345
13.0932,297
13.0945,279
13.0959,298
13.0992,346
13.1009,396
13.1025,418
13.104,403
13.1074,358
13.1088,306
13.1105,277
13.1122,284
13.1139,325
13.1172,379
13.1189,413
13.1205,411
13.1222,374
13.1239,320
13.1271,281
13.1288,275
13.1305,306
13.1322,359
13.1354,403
13.1375,415
13.1385,389
13.1401,338
13.1434,291
13.1452,273
13.1468,292
13.1485,341
13.1501,391
13.1534,413
13.155,398
13.1567,353
13.1584,300
13.16,271
13.1635,277
13.1651,317
13.1668,372
13.1683,407
13.1699,405
13.1733,370
13.1749,317
13.1766,278
13.1783,271
13.18,301
13.1833,353
13.185,397
13.1871,408
13.1882,381
13.1898,329
13.193,283
13.1946,264
13.1962,282
13.1995,328
13.2012,379
13.2028,402
13.2044,386
13.2061,340
13.2095,288
13.2112,257
13.2128,262
13.2144,301
13.216,353
13.2192,388
13.2208,386
13.2225,347
13.2241,293
13.2274,253
13.229,244
13.2308,273
13.2334,323
13.235,368
13.2373,378
13.2395,350
13.2401,298
13.2432,250
13.245,229
13.2467,245
13.2484,290
13.2501,339
13.2535,364
13.2548,347
13.2566,301
13.2596,250
13.2609,218
13.2626,223
13.2644,261
13.2661,313
13.2694,350
13.2711,349
13.2727,313
13.2744,262
13.2761,223
13.2793,216
13.281,248
13.2826,300
13.2843,349
13.2872,364
13.2892,341
13.2902,294
13.2919,252
13.2953,236
13.297,258
13.2987,309
13.3004,365
13.3037,394
13.3054,383
13.3071,342
13.3089,293
13.3106,266
13.3122,275
13.3138,318
13.3172,376
13.3189,416
13.3206,418
13.3224,386
13.3241,336
13.3273,298
13.329,293
13.3306,325
13.3322,380
13.3354,426
13.3368,441
13.3391,416
13.3408,368
13.3425,320
13.3442,301
13.3474,320
13.3491,369
13.3508,421
13.3538,446
13.3552,434
13.3568,393
13.3586,342
13.3602,311
13.3634,318
13.3651,359
13.3667,411
13.3701,448
13.3711,447
13.3733,412
13.3754,361
13.377,320
13.3797,312
13.3816,343
13.3826,395
13.3843,441
13.3877,454
13.389,430
13.3907,382
13.3925,334
13.3941,314
13.3973,332
13.3988,380
13.4011,430
13.4021,456
13.4054,443
13.4068,400
13.4085,349
13.4102,317
13.4136,322
13.4154,363
13.4171,415
13.4187,450
13.4203,449
13.4221,414
13.4254,362
13.4271,320
13.4288,312
13.4304,342
13.4336,394
13.4354,439
13.437,453
13.4387,428
13.4404,381
13.442,332
13.4453,310
13.447,327
13.4487,375
13.4505,424
13.4539,449
13.4553,439
13.4571,397
13.4587,346
13.4603,314
13.4635,319
13.4653,358
13.467,410
13.4686,446
13.4703,447
13.472,412
13.4753,361
13.477,319
13.4786,311
13.4803,341
13.4836,393
13.4853,437
13.4875,452
13.4889,428
13.4906,381
13.4923,332
13.4939,311
13.4973,328
13.4985,375
13.5003,426
13.5036,452
13.5053,440
13.507,397
13.5085,346
13.5102,313
13.5135,318
13.5152,358
13.517,411
13.5186,447
13.5203,448
13.522,414
13.5253,362
13.5269,320
13.5285,310
13.5314,339
13.5331,392
13.5347,437
13.5379,450
13.5396,426
13.5417,378
13.5427,330
13.5459,309
13.5476,325
13.5486,373
13.5503,423
13.5535,451
13.5552,439
13.5568,398
13.5584,348
13.5619,315
13.5636,319
13.5646,359
13.5663,411
13.5696,448
13.5712,449
13.573,415
13.5747,363
13.5779,320
13.5793,310
13.5811,339
13.5827,390
13.5843,435
13.5878,450
13.5892,427
13.5903,380
13.5937,332
13.5956,310
13.5977,326
13.5988,373
13.6006,422
13.6023,448
13.6058,437
13.6075,393
13.6098,339
13.6109,304
13.6126,307
13.6143,345
13.6177,397
13.6195,434
13.6217,435
13.6235,401
13.6253,350
13.627,308
13.6287,298
13.6304,324
13.6338,374
13.6355,416
13.6382,427
13.6397,400
13.6412,348
13.6442,296
13.6461,273
13.648,288
13.6498,335
13.6521,390
13.6533,419
13.6553,411
13.6576,371
13.6588,318
13.6607,286
13.6625,289
13.6661,326
13.6678,380
13.669,417
13.6707,420
13.6726,387
13.6745,334
13.6784,292
13.6799,282
13.681,309
13.683,362
13.6849,411
13.6879,428
13.6897,407
13.6913,362
13.6929,313
13.6945,291
13.6978,306
13.6995,353
13.7017,404
13.7028,431
13.7054,421
13.7066,379
13.7102,327
13.7121,293
13.7139,295
13.7153,332
13.7168,386
13.7185,424
13.7211,427
13.7222,395
13.7256,345
13.7274,302
13.7298,292
13.731,317
13.7329,368
13.7348,413
13.7366,426
13.7385,399
13.7404,343
13.7438,281
13.7456,243
13.7477,239
13.7488,263
13.7506,290
13.7537,293
13.7556,259
13.7577,197
13.7591,134
13.7617,98
13.7639,105
13.7653,153
13.7678,225
13.7696,286
13.7712,315
13.7722,316
13.7757,309
13.7772,307
13.7786,321
13.7815,358
13.7826,406
13.7848,442
13.7875,444
13.7892,408
13.7909,348
13.7936,291
13.7953,265
13.7972,280
13.7995,327
13.8005,383
13.8023,415
13.8041,409
13.8077,371
13.8094,319
13.8112,286
13.813,287
13.8151,323
13.8161,377
13.8197,416
13.8211,421
13.8232,388
13.8256,335
13.8277,292
13.829,280
13.83,306
13.8336,358
13.8354,406
13.8375,423
13.8388,403
13.8416,356
13.8431,306
13.8452,282
13.8476,296
13.8489,341
13.8511,393
13.8539,422
13.8558,414
13.8572,373
13.8599,321
13.8612,286
13.8629,287
13.8657,323
13.8675,377
13.8689,416
13.871,421
13.8733,389
13.8755,338
13.8769,294
13.8798,281
13.8812,306
13.8836,357
13.885,404
13.8867,421
13.8883,400
13.8915,352
13.8937,301
13.8947,275
13.8965,287
13.8982,332
13.9017,384
13.9039,414
13.905,406
13.9067,366
13.9086,313
13.9115,278
13.9121,277
13.9156,312
13.917,365
13.9191,405
13.9201,409
13.922,377
13.9255,324
13.9272,280
13.9289,266
13.9307,290
13.9324,339
13.9342,386
13.9377,403
13.9396,381
13.9406,332
13.9424,282
13.9442,256
13.9473,267
13.9496,309
13.9501,361
13.9519,389
13.955,379
13.9567,334
13.9585,281
13.9602,245
13.962,244
13.9656,279
13.9669,331
13.9687,372
13.9704,376
13.9736,344
13.9754,291
13.9771,246
13.9788,231
13.9806,254
13.9836,301
13.9854,349
13.9871,366
13.9887,345
13.9904,297
13.9923,247
13.994,222
13.9975,234
13.9996,277
14.0006,329
14.0023,362
14.0041,356
14.0077,316
14.0098,267
14.0108,234
14.0126,237
14.0153,276
14.0176,333
14.0186,380
14.0202,390
14.022,363
14.0255,315
14.0272,276
14.0289,267
14.0311,295
14.0334,350
14.0356,402
14.0366,424
14.0388,408
14.0416,363
14.0433,315
14.045,292
14.0467,306
14.0484,353
14.0501,407
14.0535,439
14.0552,433
14.057,395
14.0587,343
14.0604,308
14.0637,308
14.0637,345
14.0672,399
14.0689,441
14.0706,447
14.0724,418
14.0742,369
14.0775,324
14.0792,310
14.0809,334
14.0826,384
14.0842,432
14.0875,452
14.089,434
14.0906,388
14.0923,338
14.0939,312
14.0974,324
14.0994,369
14.1004,421
14.1021,453
14.1052,448
14.1069,410
14.1085,360
14.1102,322
14.1119,319
14.1152,354
14.1168,405
14.1184,445
14.1214,452
14.1231,422
14.1248,371
14.1265,325
14.1282,311
14.1299,335
14.1332,385
14.1348,433
14.1365,452
14.1381,434
14.1398,389
14.1431,340
14.1449,314
14.1465,326
14.1482,371
14.1514,422
14.153,452
14.1548,446
14.1564,407
14.1581,355
14.1614,316
14.163,313
14.1647,348
14.1663,399
14.1679,439
14.1712,445
14.1729,415
14.1745,365
14.1761,318
14.1791,303
14.1808,326
14.1825,376
14.1841,424
14.1874,444
14.1889,426
14.1906,380
14.1922,328
14.1939,301
14.1972,311
14.1988,355
14.2005,406
14.2038,437
14.2052,432
14.2069,393
14.2085,341
14.2102,304
14.2119,302
14.2151,336
14.2168,389
14.2184,430
14.22,438
14.2234,409
14.2254,359
14.2264,313
14.2282,299
14.2298,321
14.2331,372
14.2347,420
14.2363,441
14.2378,423
14.2411,377
14.2429,325
14.2445,298
14.2461,308
14.2492,351
14.2509,404
14.2525,435
14.2541,430
14.2574,391
14.2591,338
14.2607,301
14.2623,298
14.264,333
14.2671,386
14.2687,429
14.2703,437
14.2721,409
14.2752,358
14.2774,311
14.2785,295
14.2801,316
14.2834,366
14.285,413
14.2868,434
14.2892,417
14.2903,372
14.292,321
14.2955,294
14.2972,304
14.2989,348
14.3006,400
14.3023,432
14.3039,427
14.3073,388
14.3089,335
14.3106,298
14.3122,296
14.3155,329
14.3172,382
14.3189,424
14.3205,431
14.3223,403
14.3242,353
14.326,306
14.3294,290
14.3312,312
14.3329,362
14.3346,411
14.3362,432
14.3393,414
14.3411,368
14.3429,315
14.3446,287
14.3463,295
14.3479,338
14.3513,390
14.353,423
14.3548,420
14.3566,383
14.3583,330
14.3617,291
14.3635,286
14.3654,316
14.3672,366
14.369,406
14.3707,412
14.3725,381
14.3742,330
14.3759,285
14.3792,270
14.3809,292
14.3826,342
14.3843,393
14.386,415
14.3893,401
14.3916,357
14.3926,306
14.3944,279
14.3977,289
14.3993,331
14.4011,385
14.4037,419
14.4055,415
14.4069,379
14.4097,327
14.4114,289
14.4132,286
14.4149,320
14.4166,376
14.4198,420
14.4218,433
14.4229,407
14.4247,358
14.4263,311
14.4298,295
14.4315,315
14.4332,365
14.4354,414
14.4379,436
14.4393,419
14.4411,373
14.4429,321
14.4446,292
14.4482,300
14.45,342
14.4517,395
14.4528,429
14.4546,425
14.4565,388
14.4582,335
14.4619,297
14.4637,291
14.466,322
14.4672,374
14.4696,413
14.4707,413
14.4725,372
14.4743,306
14.4779,242
14.4793,203
14.4808,199
14.4834,221
14.4853,246
14.4875,249
14.4897,224
14.4916,179
14.4936,135
14.4943,117
14.4977,143
14.4994,204
14.5016,282
14.5028,355
14.5045,398
14.5063,403
14.5099,379
14.512,349
14.5135,340
14.5145,361
14.5164,396
14.5199,424
14.5214,422
14.5236,387
14.5248,334
14.527,287
14.53,271
14.5318,294
14.5335,347
14.5354,400
14.5376,425
14.5388,411
14.5406,368
14.5438,316
14.5457,287
14.548,294
14.5495,334
14.5507,388
14.5525,423
14.5542,421
14.5578,385
14.5594,333
14.5617,295
14.5629,288
14.5648,319
14.5667,371
14.5703,412
14.5703,421
14.5727,394
14.5749,343
14.5777,295
14.58,278
14.5811,298
14.583,346
14.5848,396
14.5866,420
14.5884,405
14.5919,360
14.5941,309
14.5957,279
14.5969,286
14.5988,327
14.6007,381
14.6025,416
14.6057,413
14.6077,375
14.6089,320
14.6109,280
14.6127,273
14.6145,303
14.6185,356
14.6197,400
14.6216,412
14.623,386
14.6248,335
14.6268,287
14.6291,267
14.632,284
14.6335,330
14.6346,380
14.6368,402
14.64,387
14.6416,341
14.643,288
14.644,257
14.6473,263
14.6495,302
14.6509,356
14.6536,390
14.6553,388
14.657,351
14.6586,297
14.6602,256
14.6639,249
14.6653,279
14.6678,330
14.6694,374
14.6715,385
14.6726,358
14.6745,306
14.6763,258
14.6797,237
14.6812,255
14.6836,302
14.6858,353
14.6869,377
14.6886,363
14.6902,316
14.692,264
14.6957,231
14.6972,234
14.6996,271
14.7012,321
14.7037,357
14.7058,354
14.7069,315
14.709,263
14.7118,223
14.7132,214
14.7156,243
14.7175,294
14.7186,339
14.7203,352
14.7236,324
14.725,275
14.7268,228
14.7286,209
14.7309,228
14.7337,276
14.7355,329
14.7368,359
14.7399,348
14.741,306
14.7432,260
14.746,234
14.7475,244
14.7488,288
14.7506,347
14.7524,388
14.7541,393
14.7578,363
14.7597,314
14.7618,278
14.7629,275
14.7648,309
14.7666,366
14.7683,414
14.77,431
14.7737,409
14.7754,364
14.7772,318
14.7793,300
14.7815,321
14.7827,371
14.7845,422
14.7864,448
14.7882,437
14.7908,396
14.7938,346
14.7955,315
14.7966,322
14.7984,364
14.8002,418
14.8036,456
14.805,457
14.8068,424
14.8085,373
14.8103,332
14.8122,323
14.8158,354
14.8177,404
14.8196,447
14.8219,460
14.8237,435
14.8256,387
14.8275,339
14.8297,320
14.8309,339
14.8327,387
14.8363,437
14.837,462
14.8399,448
14.8421,406
14.8435,355
14.8446,322
14.8464,328
14.8481,369
14.8513,421
14.853,457
14.8547,457
14.8564,423
14.8598,372
14.8615,330
14.8631,321
14.8648,351
14.8665,402
14.8699,446
14.8717,460
14.8736,437
14.8752,389
14.8775,341
14.8787,319
14.8805,336
14.8838,383
14.8858,433
14.8872,459
14.8896,447
14.891,404
14.8928,354
14.8945,321
14.8976,326
14.8997,367
14.9008,419
14.9026,455
14.9057,456
14.9071,421
14.9088,370
14.9106,327
14.9123,318
14.9158,347
14.9175,398
14.9197,443
14.9208,457
14.9234,434
14.9256,386
14.9267,338
14.9284,317
14.9318,334
14.9335,381
14.9357,430
14.9367,457
14.9391,446
14.9415,404
14.9433,354
14.9451,322
14.9468,327
14.9485,367
14.9518,419
14.9536,455
14.9557,455
14.9567,420
14.9586,369
14.9605,327
14.9638,318
14.9656,348
14.9677,400
14.9702,445
14.9709,460
14.9733,436
14.9755,388
14.977,340
14.9787,318
14.9804,334
14.9838,380
14.9861,431
14.9871,457
14.9892,446
14.9912,404
14.9928,352
14.9945,318
14.9961,322
14.9995,361
15.0013,412
15.0037,449
15.0048,451
15.0067,417
15.0095,368
15.01,327
15.0135,318
15.0156,347
15.017,398
15.0198,443
15.0208,458
15.0236,436
15.0257,389
15.0268,340
15.0291,318
15.032,334
15.0337,380
15.0357,430
15.0386,457
15.0397,446
15.0415,404
15.0436,352
15.0451,317
15.0478,320
15.0495,359
15.0518,411
15.0543,448
15.0554,451
15.0572,417
15.059,367
15.0608,325
15.0625,314
15.0641,342
15.0676,394
15.0696,439
15.071,454
15.0721,432
15.0755,384
15.0772,335
15.079,311
15.0809,325
15.0825,371
15.0843,421
15.086,446
15.0895,435
15.0913,392
15.0931,339
15.0948,305
15.0964,308
15.0981,346
15.1014,398
15.1028,435
15.1046,435
15.1067,398
15.1097,343
15.1114,297
15.1133,284
15.1158,311
15.1174,363
15.1199,410
15.1216,428
15.1235,407
15.1251,360
15.1268,311
15.1285,288
15.1319,303
15.1335,349
15.1345,400
15.1364,428
15.1382,418
15.1416,378
15.1437,325
15.1448,292
15.1465,295
15.1498,333
15.1509,387
15.1527,427
15.1543,431
15.1562,401
15.1596,353
15.1614,311
15.1631,303
15.1648,330
15.1667,383
15.1684,429
15.1717,445
15.1735,423
15.1758,375
15.1769,325
15.179,301
15.1815,316
15.1838,362
15.1849,414
15.1867,441
15.1886,431
15.1915,389
15.1938,337
15.1959,302
15.1975,304
15.1986,342
15.2003,395
15.2036,432
15.2055,434
15.2077,396
15.2092,336
15.2102,281
15.2138,255
15.2155,264
15.2178,293
15.2189,317
15.2209,307
15.2238,261
15.2254,193
15.2276,133
15.2287,107
15.2305,126
15.2338,182
15.2355,251
15.2377,302
15.2391,317
15.2402,307
15.2436,298
15.2455,306
15.248,337
15.2491,387
15.2516,438
15.2536,468
15.2557,456
15.2575,409
15.2593,345
15.2616,293
15.2638,278
15.2649,304
15.2666,357
15.27,407
15.2716,427
15.2734,408
15.2758,363
15.2776,314
15.2787,292
15.2804,306
15.2838,352
15.2859,404
15.2874,432
15.2885,422
15.2903,381
15.2937,327
15.2954,292
15.2973,293
15.2991,330
15.3009,383
15.3026,421
15.3042,425
15.3061,393
15.3096,342
15.3118,298
15.313,286
15.3148,310
15.3165,361
15.3198,406
15.3216,422
15.3234,402
15.3252,355
15.3269,305
15.3285,282
15.3304,296
15.3337,340
15.3355,392
15.3379,420
15.339,412
15.3408,370
15.3425,315
15.3459,280
15.3476,280
15.3494,316
15.3511,370
15.3532,409
15.3557,414
15.3574,383
15.3597,330
15.3608,287
15.3625,274
15.3659,299
15.3676,349
15.3693,396
15.3717,413
15.3729,391
15.3748,343
15.3766,293
15.3786,268
15.3804,280
15.3842,325
15.3857,376
15.3875,406
15.3894,398
15.3911,357
15.3928,303
15.3946,268
15.398,266
15.398,300
15.4015,353
15.4045,391
15.405,393
15.4078,360
15.4095,305
15.4116,260
15.4127,245
15.4144,269
15.4161,317
15.4197,365
15.4216,381
15.4234,359
15.4252,309
15.4269,258
15.4286,231
15.4303,241
15.4337,284
15.4351,335
15.4361,365
15.4396,356
15.4414,312
15.4432,258
15.4449,221
15.4466,219
15.449,253
15.45,303
15.4536,344
15.455,349
15.4567,315
15.4584,264
15.4601,220
15.4637,206
15.4656,231
15.4668,282
15.4687,331
15.4703,352
15.4721,332
15.4757,287
15.4776,239
15.4798,216
15.481,232
15.4828,279
15.4846,336
15.4866,373
15.4884,371
15.4902,334
15.4938,286
15.4956,255
15.4967,258
15.4986,297
15.5024,356
15.5024,401
15.5055,411
15.5078,385
15.5089,338
15.5112,297
15.5142,287
15.516,315
15.5183,368
15.52,419
15.5217,440
15.5229,422
15.5248,379
15.5269,330
15.5298,306
15.5315,320
15.5337,367
15.5349,420
15.5367,451
15.5388,446
15.5415,408
15.5433,357
15.5452,321
15.5471,321
15.549,357
15.5508,408
15.5527,449
15.5544,455
15.5577,425
15.5594,376
15.5616,332
15.5629,318
15.5647,344
15.5666,394
15.57,441
15.5718,461
15.5737,442
15.5755,396
15.5774,346
15.5793,320
15.5813,331
15.5837,376
15.5848,427
15.587,459
15.5898,452
15.5916,414
15.5936,364
15.5955,327
15.5974,325
15.5996,361
15.6008,412
15.6029,451
15.6052,458
15.607,427
15.6088,377
15.6105,331
15.6138,317
15.6156,342
15.6178,392
15.6188,439
15.6209,458
15.6238,439
15.6255,393
15.6272,342
15.6289,315
15.6308,326
15.6325,370
15.6356,420
15.6378,451
15.6389,446
15.6407,406
15.6424,355
15.6457,316
15.6477,314
15.6488,350
15.6511,402
15.6535,443
15.6535,450
15.6535,422
15.6535,373
15.6535,327
15.6535,313
15.6535,336
15.6664,385
15.6664,432
15.6664,452
15.6664,434
15.6664,389
15.6664,339
15.6664,311
15.6664,322
15.6824,367
15.6824,420
15.6824,452
15.6824,446
15.6824,408
15.6824,356
15.6936,318
15.6936,316
15.6982,351
15.6982,403
15.6982,444
15.6982,451
15.6982,421
15.6982,371
15.6982,325
15.6982,310
15.7142,333
15.7142,383
15.7142,431
15.7142,451
15.7142,433
15.7238,387
15.7265,336
15.7277,309
15.7277,319
15.7277,363
15.7347,415
15.7377,447
15.738,441
15.74,403
15.7431,351
15.7451,312
15.7471,309
15.7491,343
15.7512,396
15.7536,437
15.7547,444
15.7571,415
15.7586,364
15.7602,318
15.7633,303
15.7647,325
15.7663,375
15.7684,424
15.7702,443
15.7722,425
15.7742,380
15.776,328
15.778,301
15.78,311
15.7821,355
15.7841,407
15.7867,440
15.7887,436
15.7907,397
15.7927,345
15.7938,307
15.8,304
15.8,339
15.8,392
15.8,434
15.8,442
15.8,412
15.8,361
15.8,313
15.8,296
15.8,316
15.8171,363
15.8191,410
15.8212,428
15.8232,409
15.8253,363
15.8273,311
15.8295,283
15.8315,292
15.8326,334
15.8346,386
15.8367,418
15.8388,412
15.8408,372
15.8429,317
15.8449,278
15.8471,272
15.8485,304
15.8505,356
15.8536,399
15.8556,409
15.8576,381
15.8596,331
15.8617,287
15.8627,272
15.8652,294
15.8672,345
15.8693,395
15.8713,417
15.8733,401
15.8753,356
15.8774,305
15.8784,278
15.8804,287
15.8824,329
15.8845,383
15.8865,416
15.8885,414
15.8905,378
15.8936,327
15.8936,291
15.8956,289
15.8977,324
15.8997,378
15.8997,421
15.8997,430
15.8997,402
15.9093,351
15.9093,304
15.9093,288
15.9093,309
15.9093,359
15.9093,409
15.9093,431
15.9093,415
15.9093,370
15.9254,318
15.9254,290
15.931,299
15.931,341
15.934,394
15.936,426
15.938,421
15.941,381
15.943,323
15.945,276
15.947,259
15.9491,275
15.9511,309
15.9531,330
15.9551,315
15.9569,261
15.9589,188
15.9609,123
15.9629,95
15.9649,117
15.9669,173
15.9669,238
15.9669,281
15.9729,288
15.9729,268
15.9729,253
15.9729,269
15.9807,318
15.9835,387
15.9835,449
15.9835,480
15.9887,465
15.9897,413
15.9897,345
15.9938,292
15.9938,280
15.9938,308
16.001,360
16.003,405
16.0048,418
16.0048,393
16.0048,345
16.0048,300
16.0123,284
16.0143,305
16.0163,355
16.0184,404
16.0204,428
16.0224,414
16.0246,371
16.027,319
16.0288,292
16.0308,300
16.0329,342
16.0349,395
16.0364,428
16.0364,425
16.0364,388
16.0364,336
16.0364,298
16.0364,293
16.0364,325
16.0364,378
16.0526,421
16.0556,431
16.0556,404
16.0556,354
16.0556,306
16.0556,288
16.0556,307
16.0664,356
16.0697,405
16.0708,428
16.0708,412
16.0708,367
16.0767,314
16.0767,284
16.0767,290
16.0832,330
16.0848,382
16.0848,416
16.0848,412
16.0848,375
16.0933,321
16.094,281
16.096,274
16.0992,304
16.1011,356
16.1011,400
16.1043,410
16.1072,383
16.1092,332
16.1092,285
16.1124,266
16.1124,284
16.1173,330
16.1192,379
16.1204,401
16.1204,386
16.1204,339
16.1204,287
16.1292,256
16.1292,262
16.1292,302
16.1292,355
16.1292,388
16.1292,386
16.1292,347
16.1292,293
16.1447,251
16.1447,243
16.1447,272
16.1447,321
16.1447,366
16.1447,377
16.1447,349
16.1447,298
16.1613,250
16.1633,230
16.1633,247
16.1633,293
16.1633,342
16.1714,365
16.1714,350
16.1714,303
16.1772,252
16.1793,221
16.1793,226
16.1793,265
16.1793,316
16.1793,352
16.1882,350
16.1882,312
16.1929,260
16.1939,220
16.1939,212
16.1939,244
16.1939,296
16.1939,343
16.1939,358
16.1939,333
16.2097,285
16.2097,241
16.2097,225
16.2097,246
16.2097,297
16.2097,353
16.2097,383
16.2097,374
16.225,334
16.2264,288
16.2264,262
16.2264,272
16.2264,317
16.2264,375
16.2376,415
16.2376,419
16.2411,387
16.2411,339
16.2411,302
16.2411,298
16.2411,330
16.2411,385
16.2411,432
16.2411,446
16.2573,424
16.2573,377
16.2573,330
16.2573,312
16.2573,333
16.2573,382
16.2573,433
16.2573,459
16.2732,448
16.2758,405
16.2778,356
16.2798,325
16.2813,331
16.2838,372
16.2858,425
16.2865,461
16.2898,461
16.2918,427
16.2938,377
16.2938,337
16.2938,331
16.2938,363
16.2938,414
16.2938,457
16.3056,470
16.307,445
16.309,397
16.309,350
16.309,328
16.309,347
16.309,395
16.309,444
16.3213,469
16.3213,457
16.3213,413
16.3213,361
16.3213,328
16.3213,333
16.3213,373
16.3213,425
16.3374,461
16.3398,461
16.3398,427
16.3398,376
16.3398,335
16.3398,327
16.3398,358
16.3398,409
16.3534,452
16.3553,464
16.3553,439
16.3553,390
16.3553,342
16.3553,322
16.3553,340
16.3553,388
16.3696,438
16.3696,464
16.3696,452
16.3696,410
16.3696,360
16.3696,328
16.3696,333
16.3696,372
16.3854,423
16.3874,457
16.3874,457
16.3874,422
16.3942,370
16.3942,328
16.3942,321
16.3942,352
16.4013,403
16.4028,447
16.4053,461
16.4071,437
16.409,388
16.4108,340
16.4125,318
16.4125,335
16.4194,382
16.4194,431
16.4194,457
16.4229,444
16.4244,400
16.4263,348
16.4263,315
16.4263,320
16.4331,361
16.4353,414
16.4353,450
16.4397,450
16.4397,415
16.4426,364
16.4426,322
16.4426,313
16.4492,342
16.4512,393
16.4532,437
16.4532,451
16.4532,427
16.4532,379
16.4532,330
16.4532,309
16.4649,326
16.4649,374
16.4649,424
16.4649,451
16.4719,439
16.4719,395
16.4719,344
16.4719,311
16.4813,315
16.4833,354
16.4833,406
16.4833,443
16.4833,443
16.4833,409
16.4833,358
16.4945,315
16.4965,306
16.4994,336
16.4999,389
16.4999,434
16.4999,448
16.4999,425
16.4999,377
16.4999,327
16.5128,306
16.5128,322
16.5128,370
16.5128,420
16.5128,446
16.5128,434
16.5128,392
16.5128,340
16.529,305
16.529,307
16.529,345
16.5337,396
16.5357,433
16.5357,435
16.5357,401
16.5357,350
16.5452,308
16.5452,298
16.5452,326
16.5452,377
16.5452,422
16.5452,434
16.5452,410
16.5452,361
16.5612,311
16.5612,290
16.5612,305
16.5673,350
16.5673,399
16.5673,423
16.5673,411
16.5673,367
16.5771,313
16.5771,278
16.5771,278
16.5771,313
16.5771,365
16.5771,401
16.5771,402
16.5771,371
16.5933,320
16.5944,280
16.5944,272
16.5944,300
16.5944,353
16.5944,400
16.5944,415
16.5944,392
16.6094,343
16.6114,294
16.612,273
16.612,289
16.612,335
16.612,388
16.6215,415
16.6233,407
16.6253,367
16.6273,317
16.6293,287
16.6313,292
16.6333,332
16.6353,389
16.6375,428
16.6375,432
16.6375,399
16.6375,347
16.6375,303
16.648,292
16.6493,319
16.6513,371
16.6513,417
16.655,432
16.655,410
16.655,363
16.655,313
16.6632,291
16.6658,306
16.6678,353
16.6678,405
16.6678,433
16.6678,423
16.6678,380
16.6678,325
16.6791,286
16.6818,279
16.6838,302
16.6838,339
16.6876,359
16.6876,338
16.6876,280
16.6876,204
16.6945,138
16.6945,108
16.6945,127
16.6945,180
16.6945,236
16.6945,269
16.6945,267
16.7102,241
16.7102,220
16.7102,235
16.7102,297
16.7102,383
16.7102,456
16.7102,492
16.7102,479
16.7261,426
16.7278,359
16.7298,310
16.7298,301
16.7298,331
16.7298,381
16.7376,420
16.7376,425
16.7376,395
16.7422,347
16.7422,306
16.7422,297
16.7422,326
16.7422,379
16.7422,426
16.7422,443
16.7579,422
16.7579,373
16.7579,323
16.7579,299
16.7579,312
16.7579,358
16.7699,409
16.7714,437
16.7733,426
16.7755,385
16.7772,332
16.7792,298
16.7812,301
16.7812,338
16.7812,391
16.7812,429
16.7893,432
16.7911,398
16.7921,347
16.7957,303
16.7969,291
16.7992,318
16.8018,368
16.8018,414
16.8053,428
16.8073,405
16.8093,355
16.8093,304
16.8093,280
16.8093,293
16.8093,338
16.8093,390
16.8213,417
16.8213,407
16.8213,364
16.8213,311
16.8213,276
16.8213,277
16.8213,313
16.8213,365
16.8372,404
16.8394,408
16.8413,375
16.8433,322
16.8433,279
16.8433,266
16.8433,291
16.8433,342
16.8532,390
16.8552,406
16.8552,384
16.8552,335
16.8552,285
16.8552,260
16.8552,273
16.8552,316
16.8693,368
16.8713,395
16.8713,385
16.8713,341
16.8713,287
16.8713,250
16.8713,249
16.8713,283
16.8853,336
16.8853,376
16.8853,380
16.8853,348
16.8853,295
16.8949,252
16.8949,238
16.8949,262
16.9013,309
16.9013,355
16.9013,369
16.9073,346
16.9073,296
16.9073,246
16.9073,221
16.9073,234
16.9174,278
16.9194,329
16.9205,360
16.9226,350
16.9253,307
16.9273,255
16.9293,218
16.9313,218
16.9333,254
16.9333,306
16.9333,348
16.9333,354
16.9333,323
16.9333,274
16.9333,233
16.9333,223
16.9494,251
16.9494,305
16.9494,358
16.9494,379
16.9494,362
16.9494,316
16.9494,270
16.9494,249
16.9657,266
16.9672,314
16.9672,372
16.9672,407
16.9672,403
16.9672,366
16.9672,317
16.9672,285
16.9815,289
16.9834,329
16.9834,386
16.9834,428
16.9834,436
16.9834,407
16.9834,359
16.9953,317
16.9974,306
16.9974,333
16.9974,385
16.9974,434
16.9974,454
16.9974,434
16.9974,389
16.9974,341
17.0133,317
17.0133,330
17.0133,375
17.0133,425
17.0133,455
17.0133,447
17.0133,407
17.0133,356
17.0291,320
17.0318,322
17.0338,359
17.0338,413
17.0338,453
17.0338,459
17.0338,427
17.0338,375
17.0451,329
17.0477,314
17.0477,338
17.0477,388
17.0477,435
17.0477,454
17.0477,433
17.0477,386
17.0616,335
17.0625,310
17.0625,321
17.0625,367
17.0625,418
17.0625,449
17.0625,443
17.0625,403
17.0771,351
17.0771,314
17.0771,314
17.0771,351
17.0771,403
17.0771,443
17.0771,449
17.0771,418
17.093,365
17.0957,319
17.0957,305
17.0957,328
17.0957,379
17.0957,427
17.0957,446
17.0957,427
17.1092,380
17.1092,330
17.1092,305
17.1092,319
17.1092,364
17.1092,417
17.1092,448
17.1092,441
17.125,402
17.1271,350
17.1284,313
17.1284,311
17.1284,347
17.1284,398
17.1284,438
17.1394,444
17.1418,414
17.1438,363
17.1458,318
17.1478,304
17.1498,329
17.1518,381
17.1539,429
17.1539,450
17.1539,432
17.1539,387
17.1617,338
17.1638,312
17.1638,324
17.1638,369
17.1638,419
17.1638,450
17.1638,444
17.1638,403
17.1776,352
17.1776,316
17.1776,316
17.1776,352
17.1776,404
17.1776,445
17.1776,452
17.1776,422
17.1937,372
17.1963,327
17.1978,313
17.1978,338
17.1978,388
17.1978,436
17.1978,456
17.1978,438
17.2096,392
17.2096,343
17.2135,316
17.2153,328
17.2172,373
17.2191,423
17.2209,453
17.2227,447
17.2255,408
17.2278,356
17.2298,318
17.2313,317
17.2325,353
17.2325,404
17.2325,444
17.2325,450
17.2415,420
17.2415,370
17.2415,325
17.2415,311
17.2415,334
17.2415,382
17.2415,428
17.2415,445
17.2576,426
17.2595,379
17.2614,327
17.2633,300
17.2649,310
17.2675,352
17.2697,403
17.2717,433
17.273,427
17.273,387
17.273,333
17.273,294
17.273,291
17.273,323
17.273,376
17.273,415
17.289,421
17.2913,389
17.2933,335
17.2958,288
17.2958,273
17.2958,297
17.2958,348
17.2958,398
17.305,418
17.3073,400
17.3073,355
17.3073,304
17.3073,278
17.3073,289
17.3073,333
17.3073,387
17.321,419
17.3235,415
17.3235,377
17.3235,324
17.3235,287
17.3235,286
17.3235,320
17.3235,375
17.3371,419
17.3371,429
17.3371,401
17.3371,353
17.3371,308
17.3371,294
17.3371,317
17.3371,367
17.3531,415
17.3531,435
17.3531,418
17.3531,371
17.3531,320
17.3531,293
17.3531,304
17.3531,348
17.3691,402
17.3691,433
17.3691,427
17.3691,387
17.3691,334
17.3691,297
17.3691,294
17.3691,327
17.3855,378
17.3861,414
17.3861,412
17.3861,369
17.3861,301
17.396,238
17.396,200
17.396,197
17.4011,219
17.4033,240
17.4053,237
17.4053,207
17.4053,159
17.4053,113
17.4053,98
17.4053,127
17.417,193
17.417,275
17.417,350
17.417,396
17.417,402
17.417,378
17.417,350
17.417,343
17.4332,367
17.4356,404
17.4373,430
17.4391,426
17.441,390
17.4433,335
17.4444,289
17.4444,274
17.4492,298
17.4492,349
17.4492,400
17.4492,422
17.4492,405
17.4492,359
17.4492,309
17.4492,282
17.4653,292
17.4674,335
17.4674,388
17.4715,420
17.4733,416
17.4753,376
17.4753,322
17.4753,284
17.4812,281
17.4833,313
17.4833,367
17.4833,408
17.4833,417
17.4833,388
17.4833,337
17.4963,289
17.4973,272
17.4973,293
17.4973,342
17.4973,390
17.4973,411
17.4973,394
17.4973,349
17.4973,298
17.5132,271
17.5132,279
17.5132,321
17.5132,375
17.5214,407
17.5214,402
17.5214,363
17.5214,309
17.5293,271
17.5293,267
17.5293,299
17.5293,352
17.5293,395
17.5293,404
17.5293,375
17.5293,324
17.5453,279
17.5472,263
17.5472,285
17.5472,334
17.5472,384
17.5472,406
17.5472,389
17.5472,343
17.5617,291
17.5622,262
17.5622,270
17.5622,311
17.5622,364
17.5622,397
17.5622,391
17.5622,351
17.5769,296
17.5769,257
17.5769,252
17.5769,284
17.5769,336
17.5769,380
17.5769,389
17.5769,361
17.593,309
17.593,264
17.5965,246
17.5965,265
17.5965,310
17.5965,358
17.5965,378
17.5965,359
17.6092,310
17.6092,259
17.6092,229
17.6092,238
17.6092,279
17.6092,330
17.6092,363
17.6092,359
17.6251,319
17.6251,266
17.6251,226
17.6251,220
17.6251,251
17.6251,303
17.6251,347
17.6251,358
17.641,330
17.641,280
17.641,234
17.641,216
17.641,238
17.641,288
17.641,341
17.641,368
17.657,356
17.657,313
17.657,267
17.657,241
17.657,254
17.657,299
17.657,358
17.657,398
17.6732,401
17.675,368
17.6778,320
17.6798,286
17.6813,286
17.6838,323
17.6858,380
17.6874,427
17.6898,441
17.6918,416
17.6938,369
17.6958,324
17.6983,310
17.6998,332
17.7018,384
17.7042,435
17.7042,459
17.7042,445
17.7042,401
17.7042,352
17.7042,324
17.7042,333
17.7042,378
17.7199,432
17.7199,468
17.7227,466
17.7246,429
17.7265,378
17.7284,338
17.7301,332
17.732,364
17.732,416
17.736,458
17.7381,468
17.7381,442
17.7381,393
17.7456,347
17.7456,328
17.7456,350
17.7456,399
17.7519,448
17.7519,472
17.7519,457
17.7519,413
17.7519,363
17.7519,333
17.7519,341
17.7678,383
17.7703,434
17.7703,467
17.7719,464
17.7719,427
17.7719,375
17.7719,335
17.7719,329
17.7839,361
17.788,412
17.788,455
17.788,466
17.788,439
17.788,389
17.788,342
17.788,321
17.7997,341
17.7997,390
17.7997,439
17.7997,462
17.7997,448
17.7997,405
17.7997,354
17.7997,323
17.8154,330
17.8174,371
17.8194,423
17.8214,456
17.8233,453
17.8253,416
17.8273,365
17.8293,323
17.8312,318
17.8312,352
17.8312,404
17.8312,447
17.8383,458
17.8383,432
17.8383,382
17.8383,333
17.8474,313
17.8474,332
17.8474,379
17.8474,428
17.8474,451
17.8474,436
17.8474,392
17.8474,341
17.8633,311
17.8653,319
17.8653,362
17.8653,415
17.8653,451
17.8653,450
17.8653,413
17.8653,362
17.8793,321
17.8793,315
17.8793,346
17.8793,398
17.8793,442
17.8793,452
17.8793,426
17.8793,377
17.8958,328
17.898,309
17.898,328
17.898,376
17.898,426
17.898,450
17.898,436
17.898,393
17.9113,342
17.9138,311
17.9138,317
17.9138,358
17.9138,410
17.9138,446
17.9138,445
17.9138,411
17.9272,361
17.929,321
17.9318,315
17.9336,345
17.9355,396
17.9373,439
17.9392,449
17.9392,422
17.9432,373
17.9432,324
17.9432,304
17.9432,322
17.9432,370
17.9524,418
17.9544,441
17.9564,426
17.9592,380
17.9592,327
17.9592,295
17.9648,300
17.9675,340
17.9675,394
17.9709,430
17.9709,428
17.9752,392
17.9752,339
17.9789,297
17.9809,289
17.9829,317
17.9829,367
17.9829,408
17.9829,416
17.9912,389
17.9912,338
17.9943,290
17.9964,272
17.9984,291
18.0004,340
18.0024,393
18.0044,418
18.0064,406
18.0088,363
18.0101,311
18.0101,280
18.0101,286
18.0101,325
18.0101,379
18.021,415
18.0225,415
18.0225,380
18.0225,328
18.0225,289
18.0225,283
18.0225,313
18.0225,368
18.0225,414
18.0392,428
18.0412,405
18.0432,357
18.0452,309
18.0472,291
18.0492,310
18.0512,358
18.0531,409
18.0546,436
18.0546,422
18.0546,378
18.0546,325
18.0546,293
18.0546,299
18.0546,339
18.0546,393
18.0704,429
18.0732,429
18.0752,394
18.0773,342
18.0773,301
18.0773,292
18.0773,319
18.0884,367
18.0884,403
18.0884,403
18.0884,362
18.0884,292
18.0884,223
18.0884,176
18.0986,165
18.0986,184
18.1022,213
18.1052,230
18.1072,219
18.1093,184
18.1112,147
18.1132,134
18.1132,161
18.1132,229
18.1192,325
18.1192,413
18.1192,453
18.1192,441
18.1192,396
18.1192,351
18.1192,329
18.1337,343
18.1337,381
18.1337,415
18.1337,423
18.1337,397
18.1337,349
18.1337,303
18.1337,287
18.1496,307
18.1496,358
18.1496,412
18.1496,439
18.1496,427
18.1496,385
18.1496,333
18.1496,300
18.1654,305
18.1673,344
18.1693,396
18.1714,432
18.1733,433
18.1753,398
18.1753,345
18.1753,303
18.1813,295
18.1833,323
18.1853,375
18.1853,420
18.1853,433
18.1853,409
18.1853,360
18.1853,311
18.1973,290
18.1993,307
18.2002,354
18.2044,403
18.2053,427
18.2077,414
18.2093,369
18.2118,316
18.2133,284
18.2133,288
18.2133,327
18.2211,381
18.2211,419
18.2211,420
18.2211,386
18.2211,332
18.2292,291
18.2292,281
18.2337,309
18.2337,361
18.2337,405
18.2337,418
18.2337,393
18.2337,343
18.245,293
18.245,271
18.2498,287
18.2498,333
18.2498,385
18.2498,411
18.2498,399
18.2498,356
18.2611,303
18.2611,270
18.2653,274
18.2672,311
18.2691,363
18.2709,399
18.2741,399
18.2741,363
18.2772,309
18.2796,267
18.2814,257
18.2833,285
18.2847,337
18.2861,382
18.2861,396
18.2861,371
18.2933,318
18.2933,268
18.2933,245
18.299,259
18.299,303
18.299,354
18.299,379
18.299,366
18.3092,320
18.3113,267
18.3133,232
18.3153,234
18.3173,270
18.3193,321
18.3193,360
18.3193,361
18.3253,325
18.3274,272
18.3294,229
18.3294,218
18.3294,245
18.3294,295
18.3294,342
18.3294,358
18.3413,335
18.3433,287
18.3453,240
18.3473,219
18.3493,237
18.3513,286
18.3532,342
18.3532,375
18.3573,368
18.3593,328
18.3613,281
18.3613,252
18.3613,259
18.3613,300
18.3613,359
18.3613,401
18.3734,407
18.3734,378
18.3734,329
18.3734,290
18.3734,284
18.3734,315
18.3734,370
18.3871,419
18.3899,438
18.3905,418
18.3905,373
18.3905,327
18.3905,307
18.3994,325
18.3994,375
18.3994,428
18.4052,456
18.4079,446
18.4079,406
18.4079,356
18.4079,323
18.4079,327
18.4079,366
18.4079,419
18.4213,458
18.4233,462
18.4233,429
18.4233,380
18.4233,339
18.4233,329
18.4233,359
18.4233,410
18.4371,456
18.4391,472
18.4411,451
18.4431,403
18.4458,355
18.4478,331
18.4498,347
18.4518,392
18.4532,444
18.4532,472
18.4532,462
18.4532,421
18.4532,372
18.4532,337
18.4532,339
18.4532,376
18.4706,428
18.4706,466
18.4706,468
18.4706,435
18.4706,383
18.4706,341
18.4706,330
18.4706,358
18.4854,408
18.4864,454
18.4892,470
18.4914,449
18.4938,401
18.4958,352
18.4978,327
18.5004,342
18.5018,388
18.5018,439
18.5018,467
18.5018,456
18.5018,415
18.5018,364
18.5018,329
18.5018,331
18.518,370
18.518,421
18.518,460
18.518,463
18.518,431
18.518,380
18.518,336
18.518,325
18.5337,353
18.5337,403
18.5337,449
18.5337,465
18.5337,442
18.5337,395
18.5337,346
18.5337,322
18.5496,337
18.5496,384
18.5496,434
18.5496,461
18.5496,450
18.5496,408
18.5496,356
18.5496,320
18.5656,323
18.5656,361
18.5656,414
18.5656,452
18.5656,456
18.5656,423
18.5656,373
18.5656,329
18.5814,318
18.5814,345
18.5814,396
18.5814,442
18.5814,459
18.5814,437
18.5814,389
18.5814,339
18.5976,315
18.6004,330
18.6018,377
18.6032,427
18.6053,456
18.6078,447
18.6078,405
18.6078,353
18.6136,317
18.6136,319
18.6176,357
18.6195,408
18.6212,445
18.6231,449
18.625,416
18.6272,365
18.6296,321
18.6314,308
18.6314,333
18.6314,384
18.6314,429
18.6382,445
18.6402,424
18.643,377
18.6455,327
18.6455,304
18.6455,318
18.6455,364
18.6455,415
18.6455,442
18.6455,432
18.6455,390
18.6615,337
18.6633,301
18.6653,301
18.6673,338
18.6693,391
18.6693,429
18.6693,433
18.6693,401
18.6773,350
18.6773,306
18.6773,295
18.6773,321
18.6773,372
18.6773,416
18.6773,431
18.6773,406
18.6933,355
18.6953,301
18.6973,276
18.6998,289
18.7013,336
18.7031,390
18.7031,421
18.7031,415
18.7094,375
18.7094,323
18.7094,289
18.7094,290
18.7094,327
18.7094,380
18.7094,420
18.7094,425
18.7254,394
18.7274,342
18.728,299
18.728,286
18.728,312
18.728,364
18.7382,412
18.7387,431
18.7413,413
18.7438,368
18.7458,320
18.7478,298
18.7498,313
18.7518,360
18.754,412
18.754,441
18.754,433
18.754,392
18.754,341
18.7637,305
18.7637,305
18.7637,342
18.7637,395
18.7715,434
18.7733,438
18.7733,407
18.7733,356
18.7796,311
18.7811,300
18.783,326
18.7863,377
18.7863,423
18.7898,439
18.7915,415
18.7915,360
18.7958,297
18.7958,258
18.8001,254
18.8013,278
18.8032,307
18.8032,311
18.8032,277
18.8032,214
18.8115,147
18.8115,106
18.8153,109
18.8173,154
18.8193,224
18.8193,287
18.8193,316
18.8193,315
18.8274,306
18.8296,304
18.8296,321
18.8296,361
18.8296,412
18.8296,451
18.8296,456
18.8296,422
18.8435,363
18.8435,306
18.8435,278
18.8435,291
18.8435,338
18.8435,394
18.8549,427
18.8549,423
18.8593,385
18.8593,334
18.8593,299
18.8593,300
18.8593,336
18.8593,390
18.8593,430
18.8593,435
18.8753,404
18.8773,353
18.8773,308
18.8773,294
18.8773,319
18.8773,369
18.8773,415
18.8773,433
18.8912,413
18.8932,364
18.8953,312
18.8958,287
18.8958,298
18.9006,342
18.9006,394
18.9006,423
18.9073,415
18.9085,375
18.9108,322
18.9108,285
18.9108,284
18.9108,319
18.9108,372
18.9108,412
18.9234,417
18.9255,386
18.9255,333
18.9255,288
18.9255,275
18.9255,299
18.9255,350
18.9255,397
18.9393,415
18.9413,395
18.9433,348
18.9453,297
18.9473,271
18.9493,282
18.9513,326
18.9531,379
18.9553,409
18.9553,401
18.9553,361
18.9553,307
18.9553,271
18.9553,269
18.9553,303
18.9553,357
18.9714,397
18.9733,403
18.9733,372
18.9733,319
18.9733,274
18.9733,259
18.9733,282
18.9733,330
18.9894,378
18.9894,396
18.9915,376
18.9933,327
18.9953,277
18.9973,250
18.9993,260
19.0019,302
19.0031,355
19.0031,383
19.0031,376
19.0031,333
19.0031,279
19.0031,241
19.0031,238
19.0031,270
19.019,321
19.021,362
19.021,368
19.021,334
19.021,281
19.021,237
19.021,222
19.021,244
19.0349,293
19.0375,341
19.0399,360
19.0414,339
19.0426,291
19.046,241
19.0484,215
19.0501,227
19.0517,272
19.0529,326
19.0548,363
19.0548,359
19.0548,320
19.0548,271
19.0548,236
19.0659,238
19.0673,276
19.0673,333
19.0714,381
19.0714,392
19.0714,367
19.0714,320
19.0714,280
19.0816,271
19.0816,298
19.0853,352
19.0853,404
19.0853,427
19.0853,411
19.0853,368
19.0853,320
19.0974,296
19.0974,310
19.1017,356
19.1017,410
19.1017,443
19.1017,439
19.1017,400
19.1017,349
19.1132,311
19.1153,310
19.1173,346
19.1193,400
19.1215,441
19.1233,448
19.1233,420
19.1233,370
19.1293,325
19.1313,310
19.1313,335
19.1313,385
19.1313,433
19.1313,454
19.1313,435
19.1313,390
19.1453,340
19.1474,313
19.1474,324
19.1474,368
19.1474,420
19.1474,451
19.1474,445
19.1474,406
19.1612,354
19.1612,316
19.1612,313
19.1612,348
19.1612,399
19.1612,441
19.1612,448
19.1612,419
19.1772,369
19.1772,323
19.1772,308
19.1772,330
19.1772,379
19.1772,426
19.1772,446
19.1772,428
19.1933,382
19.1933,331
19.1933,305
19.1933,316
19.1933,360
19.2021,412
19.2021,443
19.2021,437
19.2095,398
19.2095,346
19.2095,308
19.2095,305
19.2095,339
19.2095,391
19.2215,433
19.2215,442
19.2253,414
19.2253,364
19.2253,318
19.2253,303
19.2253,325
19.2253,375
19.2253,423
19.2253,444
19.2412,426
19.2412,381
19.2412,329
19.2467,301
19.2493,311
19.2505,355
19.2532,407
19.2548,438
19.2578,433
19.2593,393
19.2593,340
19.2593,302
19.2593,298
19.2593,332
19.2593,386
19.2714,429
19.2732,438
19.2756,411
19.2774,362
19.2792,315
