timestamp,ecg_value
0.0,353
0.0,351
0.0,351
0.0,353
0.0,357
0.0,360
0.0,361
0.0,360
0.0,358
0.0,356
0.0,355
0.0,356
0.0027,358
0.0027,360
0.0027,361
0.0027,360
0.0027,358
0.0027,356
0.0027,356
0.0027,357
0.0027,360
0.0027,364
0.0027,367
0.0027,366
0.0027,365
0.0027,362
0.0027,361
0.0027,361
0.0027,364
0.0027,367
0.0027,370
0.0027,371
0.0027,370
0.0027,368
0.0027,366
0.0027,367
0.0027,369
0.0027,372
0.0027,375
0.0027,376
0.0027,376
0.0027,374
0.0027,372
0.0027,372
0.0027,373
0.0027,376
0.0027,379
0.0027,381
0.0027,381
0.0027,380
0.0027,379
0.0027,379
0.0027,380
0.0027,382
0.0027,386
0.0027,391
0.0027,391
0.0027,391
0.0027,390
0.0027,389
0.0027,388
0.0027,391
0.0108,395
0.0108,399
0.0108,401
0.0108,401
0.0108,399
0.0108,398
0.0108,398
0.0108,400
0.0108,403
0.0108,406
0.0108,409
0.0108,409
0.0108,408
0.0108,406
0.0108,404
0.0108,403
0.0108,404
0.0108,406
0.0108,407
0.0108,406
0.0108,402
0.0108,397
0.0108,392
0.0108,387
0.0108,384
0.0108,382
0.0108,381
0.0108,378
0.0108,372
0.0108,365
0.0108,357
0.0108,351
0.0108,347
0.0108,346
0.0108,346
0.0108,344
0.0108,342
0.0108,337
0.0108,332
0.0108,328
0.0108,326
0.0108,326
0.0108,328
0.0108,330
0.0108,330
0.0108,328
0.0108,325
0.0108,322
0.0108,321
0.0108,323
0.0108,325
0.0108,327
0.019,328
0.019,327
0.019,325
0.019,323
0.019,322
0.019,323
0.019,326
0.019,329
0.019,331
0.019,331
0.019,329
0.019,328
0.019,327
0.021,327
0.021,330
0.021,333
0.021,335
0.021,335
0.021,334
0.021,332
0.021,331
0.021,330
0.021,332
0.021,335
0.021,339
0.021,341
0.021,340
0.021,338
0.021,336
0.021,336
0.021,337
0.021,340
0.021,344
0.021,346
0.021,347
0.021,345
0.021,344
0.021,343
0.021,345
0.021,347
0.021,349
0.0272,351
0.0282,352
0.0282,351
0.0282,349
0.0282,347
0.0282,347
0.0282,348
0.0282,351
0.0282,354
0.0282,356
0.0282,354
0.0282,352
0.0282,349
0.0282,348
0.0282,349
0.0282,352
0.0282,355
0.0282,358
0.0282,357
0.0282,355
0.0282,353
0.0282,352
0.0282,352
0.0282,354
0.0282,357
0.0282,359
0.0282,360
0.0282,358
0.0282,355
0.0282,352
0.0282,352
0.0282,353
0.0282,355
0.0282,358
0.0282,360
0.0282,359
0.0282,357
0.0282,354
0.0282,353
0.0282,353
0.0282,355
0.0282,358
0.0282,359
0.0282,358
0.0353,356
0.0353,353
0.0353,351
0.0353,351
0.0353,353
0.0353,356
0.0353,359
0.0353,360
0.0353,359
0.0353,356
0.0353,354
0.0353,353
0.0353,353
0.0353,355
0.0353,357
0.0353,359
0.0353,358
0.0353,357
0.0353,356
0.0353,356
0.0353,357
0.0353,360
0.0353,363
0.0353,365
0.0353,364
0.0353,361
0.0353,358
0.0353,358
0.0353,360
0.0353,365
0.0353,371
0.0353,376
0.0353,378
0.0353,378
0.0353,376
0.0353,373
0.0353,370
0.0353,368
0.0353,368
0.0353,367
0.0353,365
0.0353,361
0.0353,357
0.0353,354
0.0353,353
0.0353,354
0.0353,357
0.0353,361
0.0353,364
0.0353,364
0.0353,362
0.0353,359
0.0353,356
0.0353,355
0.0435,357
0.0435,357
0.0435,358
0.0435,356
0.0441,352
0.0441,348
0.0441,344
0.0441,341
0.0441,342
0.0441,345
0.0441,348
0.0441,350
0.0441,350
0.0441,347
0.0441,344
0.0441,343
0.0441,344
0.0441,347
0.0441,350
0.0469,352
0.0469,351
0.0469,350
0.0469,347
0.0469,346
0.0469,347
0.0469,351
0.0469,357
0.0489,363
0.0489,370
0.0489,377
0.0489,387
0.0489,399
0.0489,415
0.0489,432
0.0489,450
0.0489,463
0.0489,468
0.0489,461
0.0509,439
0.0509,404
0.0509,368
0.0509,340
0.0509,322
0.0519,317
0.0519,320
0.0519,322
0.0519,314
0.0519,291
0.0519,268
0.0519,259
0.0519,264
0.0519,282
0.0519,305
0.0519,327
0.0539,345
0.0539,356
0.0539,362
0.0539,365
0.0539,366
0.0539,366
0.0539,366
0.0539,365
0.0539,362
0.0539,358
0.0539,355
0.0539,354
0.0539,355
0.0539,358
0.0539,361
0.0539,363
0.0539,363
0.0539,361
0.0539,359
0.0539,356
0.0539,356
0.0539,358
0.0539,361
0.0539,364
0.0539,366
0.0539,365
0.0539,363
0.0539,361
0.0539,361
0.0539,362
0.0539,364
0.0539,366
0.0539,367
0.0539,367
0.0539,365
0.0539,362
0.0539,361
0.0604,362
0.0604,364
0.0609,368
0.0609,370
0.0609,370
0.0609,368
0.0609,366
0.0609,365
0.0609,365
0.0609,368
0.0609,371
0.0609,373
0.0609,374
0.0609,373
0.0609,371
0.0609,370
0.0609,370
0.0609,371
0.0609,374
0.0609,376
0.0609,377
0.0609,377
0.0609,375
0.0609,373
0.0609,373
0.0609,374
0.0609,376
0.0609,380
0.0609,382
0.0609,382
0.0609,380
0.0609,378
0.0609,378
0.0609,378
0.0609,381
0.0685,385
0.0685,388
0.0685,389
0.0685,389
0.0685,388
0.0685,388
0.0685,389
0.0685,392
0.0685,395
0.0685,398
0.0685,400
0.0685,400
0.0685,400
0.0685,399
0.0685,399
0.0685,400
0.0685,404
0.0685,409
0.0685,412
0.0685,413
0.0685,411
0.0685,410
0.0685,409
0.0685,411
0.0685,414
0.0685,417
0.0685,420
0.0685,420
0.0685,419
0.0685,417
0.0685,414
0.0685,413
0.0685,413
0.0685,414
0.0685,414
0.0685,412
0.0685,408
0.0685,403
0.0685,397
0.0685,392
0.0685,388
0.0685,387
0.0685,385
0.0685,382
0.0685,377
0.0685,369
0.0685,361
0.0685,354
0.0685,349
0.0685,347
0.0685,347
0.0685,346
0.0685,343
0.0685,339
0.0769,333
0.0769,329
0.078,327
0.0783,327
0.0783,328
0.0783,330
0.0783,331
0.0783,329
0.0783,326
0.0783,323
0.0783,322
0.0783,322
0.0783,325
0.0783,327
0.0783,329
0.0783,329
0.0783,327
0.0783,325
0.0783,323
0.0783,323
0.0783,325
0.0783,327
0.0783,330
0.0783,331
0.0783,330
0.0783,328
0.0783,326
0.0783,326
0.0783,328
0.0783,332
0.0783,335
0.0783,338
0.0783,337
0.0783,336
0.0783,333
0.0783,332
0.0783,333
0.0783,336
0.0783,339
0.0783,341
0.0783,341
0.085,340
0.085,337
0.085,335
0.085,334
0.085,336
0.085,339
0.085,342
0.085,341
0.085,339
0.085,336
0.085,333
0.085,332
0.085,333
0.085,335
0.085,337
0.085,339
0.085,338
0.085,336
0.085,333
0.085,332
0.085,333
0.085,335
0.085,337
0.085,339
0.085,340
0.085,338
0.085,336
0.085,334
0.085,333
0.085,335
0.085,338
0.0894,340
0.0894,340
0.0894,338
0.0894,336
0.0894,333
0.0894,332
0.0904,334
0.0904,336
0.0904,339
0.0904,340
0.0904,338
0.0904,336
0.0904,334
0.0904,333
0.0904,333
0.0904,336
0.0904,340
0.0904,342
0.092,341
0.092,339
0.092,336
0.092,334
0.092,334
0.092,336
0.092,339
0.092,341
0.0933,341
0.0933,339
0.0933,335
0.0933,333
0.0933,332
0.0933,334
0.0933,336
0.0933,340
0.0933,341
0.0933,341
0.0933,339
0.0933,336
0.0933,335
0.0933,336
0.0951,338
0.0951,341
0.0951,342
0.0951,342
0.0951,340
0.0951,339
0.0951,338
0.0951,340
0.0951,343
0.0951,347
0.0951,349
0.0951,349
0.0951,347
0.0968,343
0.0968,341
0.0968,339
0.0968,340
0.0968,344
0.0968,350
0.0968,355
0.0968,358
0.0968,359
0.0968,359
0.0968,358
0.0968,358
0.0968,358
0.0968,357
0.0985,355
0.0985,350
0.0985,344
0.0985,338
0.0985,335
0.0985,334
0.0985,336
0.0985,339
0.0985,342
0.0985,343
0.0985,341
0.0985,339
0.0985,336
0.0985,335
0.1002,336
0.1002,339
0.1002,341
0.1002,341
0.1002,339
0.1002,336
0.1002,333
0.1002,331
0.1002,331
0.1002,332
0.1002,334
0.1002,335
0.1017,335
0.1017,333
0.1017,332
0.1017,331
0.1017,332
0.1017,334
0.1017,338
0.1017,340
0.1017,341
0.1017,339
0.1017,336
0.1017,334
0.1017,332
0.1017,333
0.1017,336
0.1017,340
0.1017,343
0.1017,346
0.1017,350
0.1017,356
0.1017,367
0.1017,383
0.1017,403
0.1017,423
0.1017,441
0.1017,453
0.1017,457
0.1017,453
0.1017,437
0.1017,411
0.1017,381
0.1017,356
0.1017,337
0.1017,325
0.1017,322
0.1017,320
0.1017,310
0.1017,287
0.1017,262
0.1017,248
0.1017,249
0.1017,263
0.1017,283
0.1017,305
0.1017,325
0.1017,342
0.1017,354
0.1017,361
0.1017,364
0.1017,363
0.1017,359
0.1017,354
0.1017,349
0.1017,345
0.1017,343
0.1017,344
0.1017,347
0.1017,348
0.1017,348
0.1017,347
0.1017,345
0.1017,344
0.1017,344
0.1102,346
0.1102,350
0.1102,352
0.1102,355
0.1102,356
0.1102,355
0.1102,353
0.1102,353
0.1102,354
0.1122,356
0.1122,359
0.1122,361
0.1122,361
0.1122,360
0.1122,357
0.1122,357
0.1122,357
0.1122,359
0.1122,361
0.1122,362
0.1122,362
0.1122,361
0.1122,360
0.1122,360
0.1122,362
0.1122,366
0.1122,369
0.1122,373
0.1122,375
0.1122,374
0.1122,371
0.1122,369
0.1122,368
0.1122,369
0.1122,372
0.1122,375
0.1122,377
0.1122,377
0.1122,376
0.1122,374
0.1122,373
0.1122,375
0.1122,378
0.1122,382
0.1122,384
0.1122,385
0.1122,383
0.1122,381
0.1122,379
0.1122,379
0.118,382
0.118,385
0.118,389
0.118,391
0.118,391
0.118,389
0.118,387
0.118,388
0.118,389
0.118,391
0.118,394
0.118,398
0.118,399
0.118,398
0.118,398
0.118,398
0.118,400
0.118,403
0.118,408
0.118,412
0.118,414
0.118,415
0.118,414
0.118,413
0.1211,414
0.1211,415
0.1211,419
0.1211,422
0.1211,424
0.1211,423
0.1211,420
0.1211,418
0.1211,416
0.1211,415
0.1211,417
0.1211,419
0.1211,420
0.1211,419
0.1211,415
0.1211,409
0.1211,404
0.1211,401
0.1211,398
0.1211,395
0.1211,391
0.1211,387
0.1211,381
0.1211,375
0.1211,370
0.1211,367
0.1211,364
0.1211,362
0.1211,360
0.1211,355
0.1211,350
0.1211,343
0.1211,337
0.1211,333
0.1211,332
0.1211,332
0.1261,332
0.1261,332
0.1261,331
0.1266,328
0.127,325
0.127,323
0.127,323
0.127,324
0.127,326
0.1322,329
0.1322,330
0.1322,329
0.1322,326
0.1322,324
0.1322,323
0.1342,324
0.1342,326
0.1342,328
0.1342,329
0.1342,328
0.1342,326
0.1342,324
0.1342,323
0.1342,325
0.1362,329
0.1362,333
0.1362,336
0.1362,338
0.1362,338
0.1362,337
0.1362,336
0.1362,336
0.1362,336
0.1382,337
0.1382,338
0.1382,338
0.1382,337
0.1382,336
0.1382,335
0.1382,337
0.1382,339
0.1382,342
0.1402,346
0.1402,347
0.1402,345
0.1402,343
0.1402,342
0.1402,342
0.1402,343
0.1402,345
0.1402,348
0.1423,349
0.1423,348
0.1423,345
0.1435,342
0.1435,341
0.1435,342
0.1435,344
0.1435,348
0.1435,351
0.1435,353
0.1435,353
0.1435,351
0.1435,349
0.1463,349
0.1463,350
0.1463,352
0.1463,354
0.1463,355
0.1463,353
0.1463,350
0.1463,349
0.1463,348
0.1463,349
0.1463,351
0.1463,354
0.1463,355
0.1463,353
0.1463,349
0.1463,346
0.1463,344
0.1463,344
0.1463,347
0.1463,351
0.1463,354
0.1463,356
0.1504,355
0.1504,353
0.1504,350
0.1504,348
0.1504,348
0.1504,351
0.1504,354
0.1504,358
0.1504,359
0.1504,359
0.1504,360
0.1504,361
0.1504,364
0.1504,368
0.1504,371
0.1504,372
0.1504,370
0.1504,366
0.1504,362
0.1504,359
0.1504,359
0.1504,361
0.1504,365
0.1504,368
0.1504,369
0.1504,368
0.1504,367
0.1504,366
0.1504,366
0.1504,367
0.1504,369
0.1504,371
0.1504,370
0.1504,367
0.1504,363
0.1504,360
0.1504,360
0.1504,363
0.1504,369
0.1504,374
0.1504,378
0.1504,380
0.1504,380
0.1504,380
0.1504,379
0.1504,379
0.1504,380
0.1504,381
0.1504,379
0.1504,376
0.1504,371
0.1504,366
0.1504,363
0.1504,360
0.1504,361
0.1504,363
0.1504,365
0.1504,367
0.1589,366
0.1589,363
0.1589,359
0.1589,357
0.1589,356
0.1589,357
0.1598,359
0.1598,361
0.1598,362
0.1598,362
0.1598,361
0.1598,360
0.1598,359
0.1598,359
0.1598,359
0.1598,359
0.1598,359
0.1598,357
0.1598,355
0.1598,353
0.1598,353
0.1598,354
0.1598,358
0.1598,361
0.1598,361
0.1598,360
0.1598,358
0.1598,355
0.1598,355
0.1598,357
0.1598,361
0.1598,366
0.1598,371
0.1598,375
0.1598,379
0.1598,386
0.1598,400
0.1598,418
0.1598,441
0.1598,466
0.1598,491
0.1598,509
0.1598,517
0.1598,512
0.1598,492
0.1598,463
0.1598,437
0.1598,416
0.1598,399
0.1598,388
0.1598,379
0.1598,362
0.1598,329
0.1598,291
0.1598,264
0.1598,255
0.1598,262
0.1598,279
0.1598,301
0.1598,324
0.1674,343
0.1674,359
0.1674,368
0.1674,374
0.1674,376
0.1674,374
0.1674,371
0.1674,366
0.1674,361
0.1674,359
0.1674,358
0.1674,360
0.1674,364
0.1674,367
0.1674,368
0.1674,367
0.1674,365
0.1674,363
0.1674,362
0.1674,363
0.1674,366
0.1674,370
0.1674,373
0.1674,374
0.1674,372
0.1674,370
0.1674,368
0.1674,367
0.1674,369
0.1674,371
0.1674,373
0.1674,373
0.1674,370
0.1674,367
0.1674,366
0.1674,367
0.1674,371
0.1674,377
0.1674,381
0.1674,382
0.1674,380
0.1674,375
0.1674,370
0.1674,368
0.1674,369
0.1674,373
0.1674,378
0.1674,382
0.1674,382
0.1674,380
0.1674,377
0.1674,375
0.1674,375
0.1674,377
0.1674,381
0.1674,386
0.1674,388
0.1674,388
0.1674,386
0.1674,381
0.1755,378
0.1755,377
0.1755,378
0.1755,381
0.1755,384
0.1764,385
0.1764,386
0.1764,386
0.1764,387
0.1764,389
0.1764,391
0.1764,395
0.1764,397
0.1764,397
0.1764,395
0.1764,391
0.1764,389
0.1764,389
0.1764,390
0.1764,395
0.1764,400
0.1764,403
0.1764,402
0.1764,400
0.1764,398
0.1764,398
0.1764,401
0.1764,405
0.1764,408
0.1764,410
0.1764,410
0.1764,409
0.1764,408
0.1764,408
0.1764,410
0.1764,412
0.1764,414
0.1764,416
0.1764,416
0.1764,415
0.1764,414
0.1764,414
0.1764,416
0.1764,419
0.1764,420
0.1764,419
0.1764,416
0.1764,411
0.1764,405
0.1764,400
0.1764,396
0.1764,393
0.1764,392
0.1764,391
0.1764,389
0.1764,383
0.184,376
0.184,368
0.184,361
0.184,355
0.184,352
0.1936,349
0.1936,346
0.1936,344
0.1936,340
0.2006,336
0.2006,333
0.2006,332
0.2006,334
0.2089,336
0.2106,338
0.2106,338
0.2106,337
0.2174,334
0.2174,330
0.2174,327
0.2215,326
0.2255,328
0.2269,329
0.2269,329
0.2269,329
0.2269,326
0.2339,324
0.2359,323
0.2359,325
0.2359,328
0.2434,331
0.2437,334
0.2437,335
0.2437,335
0.2504,336
0.2504,337
0.2504,338
0.2504,340
0.2586,341
0.2605,340
0.2605,337
0.2605,334
0.2671,330
0.2671,328
0.2671,328
0.2671,331
0.2753,335
0.277,339
0.277,341
0.277,342
0.2834,340
0.2834,339
0.2834,338
0.2834,338
0.2915,339
0.2933,340
0.2954,339
0.2974,338
0.2993,338
0.3012,340
0.3036,343
0.3055,346
0.3075,349
0.3088,350
0.3106,347
0.3106,343
0.3106,339
0.3157,336
0.3157,335
0.3157,337
0.3215,341
0.3235,345
0.3267,347
0.3267,348
0.3267,347
0.3318,345
0.3318,343
0.3318,342
0.3318,344
0.3401,346
0.3438,348
0.3438,349
0.3438,346
0.3486,343
0.3486,342
0.3486,342
0.3486,344
0.3569,348
0.3569,351
0.3602,352
0.3602,350
0.3652,345
0.3652,339
0.3652,335
0.3652,333
0.3734,336
0.3755,342
0.3768,347
0.3768,350
0.3768,350
0.3816,349
0.3816,348
0.3816,348
0.3816,347
0.3899,347
0.3933,347
0.3938,346
0.3938,343
0.3983,340
0.3983,339
0.3983,340
0.3983,342
0.4065,345
0.4065,348
0.4099,347
0.4099,343
0.4148,339
0.4148,337
0.4148,337
0.4148,339
0.4231,345
0.4251,351
0.4265,355
0.4265,357
0.4314,354
0.4314,348
0.4314,341
0.4314,336
0.4395,335
0.4395,337
0.4436,342
0.4436,348
0.4476,352
0.4476,355
0.4476,357
0.4476,360
0.4476,363
0.4559,367
0.4559,371
0.4598,370
0.4598,366
0.4643,359
0.4643,352
0.4643,345
0.4643,342
0.4724,343
0.4724,346
0.4765,350
0.4765,351
0.4808,350
0.4808,348
0.4808,346
0.4808,344
0.4892,345
0.4892,346
0.4934,349
0.4934,349
0.4973,347
0.4973,343
0.4973,339
0.4973,335
0.5054,333
0.5054,334
0.5054,338
0.5102,342
0.5137,345
0.5137,345
0.5137,344
0.5137,341
0.5137,340
0.5216,340
0.5259,340
0.5267,341
0.534,339
0.534,336
0.5361,334
0.5378,333
0.5378,332
0.5378,334
0.5398,337
0.543,341
0.5452,344
0.5462,345
0.5482,345
0.5502,344
0.5523,346
0.5543,350
0.5563,358
0.5597,370
0.5608,384
0.5628,399
0.5648,414
0.5668,433
0.5688,453
0.5704,470
0.5724,481
0.5744,480
0.5763,461
0.5784,429
0.5804,396
0.5824,367
0.5844,345
0.5864,336
0.5884,334
0.5904,325
0.5934,302
0.595,275
0.597,254
0.599,246
0.601,251
0.603,266
0.6055,288
0.6075,312
0.6102,333
0.6113,348
0.6133,355
0.6133,355
0.6133,352
0.6194,346
0.6194,344
0.6219,344
0.6219,348
0.6267,350
0.628,351
0.628,349
0.628,347
0.628,344
0.6361,343
0.6396,344
0.6417,346
0.6437,349
0.6458,350
0.6458,350
0.6458,348
0.65,347
0.6518,347
0.6518,349
0.6518,353
0.6518,356
0.6619,358
0.663,357
0.6655,355
0.6661,351
0.6693,349
0.671,349
0.6734,352
0.6734,355
0.6765,358
0.6788,359
0.6788,357
0.6826,355
0.6846,353
0.6876,353
0.6897,356
0.6897,360
0.6927,364
0.6927,367
0.6927,367
0.6927,364
0.7008,362
0.7008,359
0.7008,359
0.7008,362
0.7093,365
0.7114,367
0.7131,367
0.7131,366
0.7174,364
0.7174,362
0.7174,362
0.722,364
0.7254,367
0.7254,371
0.7281,374
0.7281,374
0.7335,373
0.7335,372
0.7335,371
0.7335,372
0.7417,375
0.7438,377
0.7438,377
0.7438,375
0.7438,373
0.7514,370
0.7514,370
0.7514,372
0.7514,377
0.7596,383
0.7621,386
0.7626,387
0.7626,385
0.7626,382
0.7626,381
0.7707,381
0.7728,383
0.7743,386
0.7743,390
0.7788,392
0.7788,392
0.7826,392
0.7826,391
0.7826,391
0.7826,392
0.791,395
0.791,398
0.795,400
0.795,401
0.7991,400
0.7991,399
0.7991,400
0.7991,402
0.8075,405
0.8075,407
0.8117,408
0.8117,407
0.8117,403
0.816,399
0.816,395
0.816,394
0.8221,394
0.8242,395
0.8278,394
0.8286,391
0.8286,385
0.8323,378
0.8323,370
0.8323,364
0.8323,360
0.8405,359
0.8418,359
0.8457,356
0.8479,351
0.8489,345
0.8489,338
0.8489,332
0.8489,330
0.857,330
0.857,330
0.8611,330
0.8619,328
0.8653,325
0.8653,322
0.8653,319
0.8653,318
0.8734,318
0.8734,319
0.8734,320
0.878,320
0.8816,318
0.8816,315
0.8816,314
0.8816,314
0.8816,316
0.8902,319
0.8902,322
0.8957,323
0.8957,322
0.8983,320
0.8983,318
0.8983,317
0.8983,317
0.9066,319
0.9066,321
0.9115,324
0.9115,324
0.915,322
0.915,321
0.915,320
0.915,319
0.9233,319
0.9233,321
0.9233,322
0.9287,323
0.9315,322
0.9315,320
0.9315,320
0.9315,321
0.9396,325
0.9396,329
0.9396,333
0.9458,334
0.9458,333
0.9478,330
0.9478,327
0.9478,325
0.9478,326
0.9563,329
0.9563,331
0.9611,334
0.9631,334
0.9647,332
0.9667,329
0.9667,326
0.9667,326
0.9733,328
0.9733,331
0.9733,334
0.9786,335
0.9814,333
0.9814,332
0.9814,331
0.9814,331
0.9896,332
0.9896,335
0.9896,337
0.9956,338
0.9976,336
0.9976,334
0.9976,332
0.9976,331
1.0057,332
1.0057,334
1.0057,336
1.0111,338
1.0138,337
1.0138,336
1.0138,333
1.0138,331
1.0138,331
1.0223,332
1.0223,335
1.0223,337
1.0284,338
1.0305,337
1.0305,335
1.0305,334
1.0305,334
1.0391,335
1.0391,337
1.0391,340
1.0457,342
1.0475,341
1.0475,339
1.0475,336
1.0475,334
1.0556,335
1.0556,337
1.0556,340
1.0611,342
1.0635,342
1.0635,339
1.0635,337
1.0635,335
1.0715,335
1.0715,338
1.0715,340
1.0715,343
1.0785,343
1.0802,342
1.0802,340
1.0802,338
1.0871,338
1.0887,340
1.0887,343
1.0887,345
1.0957,345
1.0967,343
1.0998,340
1.1012,337
1.103,337
1.1055,340
1.1062,347
1.1097,354
1.1097,360
1.1136,363
1.1136,363
1.1136,362
1.1136,359
1.1211,357
1.1227,356
1.1227,356
1.128,354
1.1288,351
1.1288,347
1.1288,343
1.1288,341
1.137,341
1.137,343
1.137,346
1.137,349
1.1446,350
1.1469,349
1.1469,347
1.1469,345
1.1531,344
1.1531,345
1.1531,348
1.1531,349
1.1611,350
1.163,347
1.163,343
1.163,338
1.1693,334
1.1693,333
1.1693,334
1.1693,336
1.1775,338
1.1786,339
1.1786,339
1.1786,337
1.1856,336
1.1856,336
1.1856,338
1.1856,340
1.1856,343
1.1948,343
1.1948,342
1.1948,340
1.1948,337
1.2025,336
1.2025,338
1.2025,342
1.2025,348
1.2109,354
1.2127,359
1.2127,366
1.2127,376
1.2192,390
1.2192,408
1.2228,428
1.2242,449
1.2275,467
1.2288,476
1.2288,473
1.2288,454
1.2357,422
1.2357,387
1.2357,360
1.2357,340
1.2357,331
1.2455,331
1.2455,328
1.2455,312
1.2455,284
1.2522,259
1.2522,248
1.2522,253
1.2522,270
1.2607,293
1.2626,315
1.2626,333
1.2626,346
1.2693,353
1.2693,357
1.2693,359
1.2693,359
1.2775,358
1.279,356
1.279,352
1.279,347
1.2857,344
1.2857,343
1.2857,345
1.2857,349
1.2857,354
1.2953,355
1.2961,356
1.2961,354
1.2961,352
1.3022,351
1.3022,352
1.3022,355
1.3022,358
1.3107,359
1.3128,359
1.3128,359
1.3128,357
1.3188,356
1.3188,357
1.3233,359
1.3233,361
1.3278,363
1.3285,363
1.3285,361
1.3285,358
1.3353,357
1.3353,357
1.3353,359
1.3353,363
1.3435,366
1.3449,368
1.3449,367
1.3449,365
1.3515,363
1.3527,362
1.3553,363
1.3571,366
1.3587,370
1.3603,372
1.3634,372
1.3634,370
1.3634,367
1.3684,366
1.3684,367
1.3684,369
1.3684,373
1.3768,376
1.3796,377
1.3796,376
1.3796,374
1.3852,373
1.3852,373
1.3852,374
1.3852,377
1.3932,381
1.3949,382
1.3949,381
1.3949,380
1.4015,378
1.4015,377
1.4015,378
1.4015,381
1.4015,384
1.41,386
1.4128,386
1.4128,384
1.4128,382
1.4181,382
1.4181,383
1.4235,386
1.4235,390
1.4267,394
1.428,395
1.428,395
1.428,394
1.4344,393
1.4344,393
1.4344,395
1.4344,399
1.4434,402
1.4448,403
1.4448,403
1.4448,401
1.4512,400
1.4512,399
1.4512,401
1.4512,405
1.4594,407
1.4617,408
1.4617,408
1.4617,407
1.4676,404
1.4676,403
1.4676,403
1.4676,404
1.4676,405
1.4766,405
1.4781,402
1.4781,397
1.4781,391
1.4856,386
1.4856,382
1.4856,379
1.4856,377
1.4934,374
1.495,370
1.495,364
1.495,357
1.501,350
1.501,345
1.501,342
1.501,341
1.5101,340
1.5111,339
1.5121,335
1.5121,331
1.5175,326
1.5175,323
1.5175,322
1.5236,323
1.5257,324
1.5278,326
1.5278,326
1.5278,324
1.5338,321
1.5338,318
1.5338,317
1.5338,318
1.5338,321
1.5434,323
1.5444,324
1.5444,323
1.5444,321
1.5507,319
1.5507,319
1.5507,320
1.5507,323
1.5599,326
1.5615,327
1.5634,327
1.5657,325
1.5663,323
1.5681,321
1.5717,321
1.5732,324
1.5757,328
1.5776,331
1.5788,332
1.5816,331
1.5834,328
1.5849,326
1.5878,326
1.5893,327
1.5908,329
1.5932,333
1.5947,334
1.5971,335
1.5996,333
1.601,332
1.603,331
1.6058,331
1.6074,334
1.6089,336
1.6119,338
1.613,338
1.6151,335
1.6178,332
1.6192,330
1.6213,330
1.6235,333
1.6254,336
1.6283,338
1.6298,339
1.6316,338
1.6339,335
1.6355,333
1.6371,333
1.6394,335
1.6405,338
1.6424,340
1.6458,341
1.6475,340
1.6486,337
1.6503,334
1.6521,334
1.6539,335
1.6574,338
1.6591,341
1.6614,342
1.6632,342
1.665,339
1.6668,336
1.6686,335
1.6703,335
1.6735,336
1.6752,339
1.6775,340
1.6786,341
1.6804,339
1.6821,337
1.6856,334
1.6874,334
1.6891,335
1.6909,338
1.6927,340
1.6945,341
1.6962,340
1.698,337
1.7014,334
1.7028,333
1.7047,333
1.7064,336
1.7083,338
1.71,340
1.7135,340
1.7151,338
1.7168,336
1.7185,334
1.7203,334
1.722,337
1.7253,339
1.7271,342
1.729,342
1.7307,340
1.7338,338
1.7354,336
1.7376,335
1.7386,337
1.7417,340
1.7434,342
1.7454,344
1.7465,342
1.7486,339
1.7511,336
1.7531,335
1.7542,335
1.7575,337
1.759,339
1.761,341
1.7621,341
1.7639,340
1.7675,339
1.7695,339
1.7719,339
1.7733,342
1.775,345
1.7766,346
1.7785,345
1.7801,343
1.7818,340
1.7853,341
1.7876,344
1.789,349
1.7901,356
1.7919,362
1.795,366
1.7969,365
1.7991,363
1.8016,359
1.8037,356
1.8049,354
1.8067,353
1.8085,352
1.812,351
1.8138,350
1.8149,347
1.8172,344
1.8197,343
1.8216,344
1.8231,347
1.8247,350
1.827,351
1.8295,351
1.8308,348
1.8327,345
1.8345,343
1.8363,343
1.8396,343
1.8417,345
1.8428,346
1.8448,344
1.8467,342
1.8486,337
1.8508,334
1.8537,332
1.8556,332
1.8567,335
1.8586,338
1.8604,341
1.8623,341
1.8656,339
1.8675,336
1.8686,334
1.8705,333
1.8723,336
1.8742,339
1.8774,341
1.8793,342
1.8815,341
1.8827,338
1.8845,336
1.8864,337
1.8882,341
1.8899,347
1.8941,355
1.8952,364
1.8966,374
1.8983,387
1.9001,403
1.9032,419
1.905,438
1.9068,454
1.9085,464
1.9103,462
1.912,447
1.9138,416
1.9173,379
1.9191,350
1.9209,328
1.9226,319
1.9249,321
1.926,325
1.9291,317
1.9306,291
1.9323,264
1.9353,250
1.9371,252
1.9389,269
1.9406,293
1.9424,319
1.9441,341
1.9459,356
1.9493,362
1.9507,364
1.9525,362
1.9543,361
1.9561,360
1.9595,360
1.9612,358
1.9631,357
1.9652,354
1.9662,351
1.9679,350
1.9714,351
1.9732,353
1.975,356
1.9768,358
1.9786,358
1.9803,357
1.9822,355
1.984,353
1.9858,353
1.9892,354
1.9911,358
1.9929,360
1.9947,361
1.9969,360
1.998,358
2.0016,356
2.0037,357
2.0049,359
2.0067,362
2.0085,365
2.0103,366
2.0139,365
2.015,363
2.0169,361
2.0187,360
2.0206,360
2.0224,363
2.026,367
2.0281,369
2.0292,370
2.0311,368
2.0329,365
2.0346,364
2.0379,364
2.0398,366
2.041,370
2.0428,373
2.0449,374
2.0473,373
2.0491,371
2.0509,369
2.0527,368
2.0545,370
2.0576,372
2.0593,375
2.0616,377
2.0637,378
2.0649,376
2.0666,375
2.0702,373
2.0716,374
2.0731,376
2.0753,380
2.0777,382
2.0784,383
2.0817,382
2.0835,379
2.086,377
2.0876,378
2.0897,381
2.0912,383
2.0937,387
2.0955,388
2.0967,388
2.0984,386
2.102,385
2.1038,387
2.1056,390
2.1071,394
2.1099,398
2.1116,401
2.1137,402
2.1149,400
2.1171,399
2.1198,399
2.1218,400
2.123,404
2.1248,408
2.1266,411
2.1285,412
2.1319,412
2.1334,410
2.1358,408
2.1373,409
2.1402,411
2.1418,415
2.1436,418
2.1448,419
2.1471,418
2.1502,415
2.152,413
2.1536,411
2.1557,411
2.1569,411
2.1587,411
2.1605,410
2.1625,406
2.1664,400
2.1674,394
2.17,388
2.1716,384
2.1727,381
2.1764,379
2.1771,376
2.1799,371
2.1818,363
2.183,356
2.1852,350
2.1879,345
2.1897,342
2.1909,342
2.1929,342
2.1957,340
2.1969,337
2.1995,332
2.2006,327
2.2042,325
2.206,324
2.2077,324
2.2089,325
2.2108,325
2.2129,325
2.2152,322
2.2186,320
2.2196,319
2.2218,319
2.2236,321
2.2248,324
2.2279,326
2.2303,326
2.2319,324
2.2336,320
2.2348,319
2.2372,318
2.2406,318
2.242,321
2.243,325
2.2449,326
2.2471,326
2.2484,324
2.2517,322
2.2535,323
2.2559,325
2.2577,327
2.2589,330
2.262,332
2.2636,330
2.2652,328
2.267,326
2.2686,325
2.2719,327
2.2737,330
2.2756,334
2.2774,338
2.2794,338
2.2818,337
2.2837,335
2.2856,333
2.2873,334
2.2898,336
2.2917,340
2.2935,342
2.2935,343
2.2974,342
2.2989,340
2.3019,337
2.3038,335
2.3057,336
2.3084,339
2.3095,341
2.3115,342
2.3137,340
2.3156,337
2.3172,335
2.3197,334
2.3215,336
2.3239,340
2.325,345
2.3267,348
2.3299,349
2.3316,348
2.3338,346
2.3354,344
2.338,343
2.3398,344
2.3416,345
2.3438,346
2.3452,346
2.3463,345
2.3481,343
2.3517,341
2.3536,340
2.3558,342
2.3576,345
2.3587,349
2.3619,351
2.3638,350
2.3656,347
2.3678,343
2.3695,342
2.3721,342
2.3737,343
2.3755,346
2.3777,348
2.3788,349
2.3807,348
2.3826,346
2.3859,344
2.3878,344
2.3897,345
2.3908,348
2.3929,350
2.3957,350
2.3975,348
2.3999,346
2.4016,345
2.4028,344
2.405,346
2.4061,349
2.41,351
2.4116,351
2.4127,350
2.4146,347
2.4179,344
2.42,342
2.4214,342
2.4226,345
2.4262,347
2.4269,349
2.4296,349
2.4316,347
2.4328,344
2.4346,341
2.4369,341
2.4397,343
2.442,346
2.4436,350
2.4448,353
2.4472,353
2.4484,352
2.4519,351
2.4543,351
2.456,352
2.4577,355
2.4589,356
2.4608,357
2.4628,355
2.4647,351
2.4667,348
2.4691,346
2.472,348
2.4739,352
2.4756,358
2.4768,363
2.4787,367
2.4806,370
2.4841,370
2.4856,369
2.4877,368
2.4889,367
2.4908,366
2.4932,364
2.4943,361
2.4978,356
2.5004,351
2.5019,347
2.5033,346
2.5045,346
2.5082,348
2.51,351
2.5117,353
2.5129,352
2.5152,351
2.518,349
2.5199,349
2.5221,350
2.5237,354
2.525,356
2.5269,358
2.5288,357
2.5307,353
2.5327,348
2.5361,344
2.5379,341
2.5402,340
2.5419,342
2.5429,343
2.5448,343
2.5466,342
2.5483,340
2.5518,337
2.5538,336
2.555,337
2.5568,341
2.5587,345
2.5605,348
2.5623,349
2.5662,346
2.5678,343
2.569,342
2.5709,343
2.5728,346
2.5747,350
2.5765,351
2.5789,353
2.58,354
2.5838,359
2.585,370
2.5868,387
2.5887,410
2.5906,435
2.594,460
2.595,482
2.598,495
2.5996,497
2.6008,486
2.6045,463
2.6057,436
2.6079,412
2.609,392
2.6111,376
2.6122,365
2.6157,354
2.6179,330
2.6196,293
2.6218,259
2.6228,242
2.6247,243
2.6274,257
2.6285,279
2.6318,301
2.6338,320
2.6355,336
2.638,350
2.6402,358
2.6417,363
2.6429,365
2.6449,362
2.6468,357
2.6501,351
2.6521,347
2.6539,345
2.6558,348
2.6574,352
2.6586,356
2.6604,358
2.6622,357
2.6659,353
2.6675,349
2.6689,347
2.672,348
2.6735,351
2.6762,355
2.6762,359
2.6797,359
2.6817,358
2.6836,355
2.6847,355
2.6869,355
2.6897,358
2.6916,362
2.6928,365
2.6947,367
2.6966,365
2.6993,362
2.7007,359
2.7027,358
2.7047,359
2.708,362
2.7103,366
2.7118,369
2.713,369
2.7149,367
2.7179,365
2.7195,363
2.7216,361
2.7227,360
2.7245,360
2.7273,362
2.7296,361
2.7314,362
2.7333,363
2.7352,365
2.7371,368
2.739,371
2.7411,374
2.7423,377
2.7458,377
2.748,376
2.7498,373
2.7509,370
2.7531,368
2.7558,369
2.7576,372
2.7587,374
2.7604,375
2.7622,375
2.7656,373
2.7673,372
2.7692,373
2.771,375
2.7726,379
2.7744,383
2.7775,385
2.7794,385
2.7805,383
2.7823,382
2.784,381
2.7875,384
2.7897,388
2.7908,392
2.793,395
2.7958,394
2.7975,391
2.7995,388
2.8007,387
2.8025,387
2.8043,391
2.8075,399
2.8098,405
2.8109,409
2.8122,408
2.8157,406
2.8177,403
2.8189,402
2.8207,406
2.8239,409
2.8253,413
2.8274,414
2.8297,411
2.8308,407
2.8326,402
2.8343,401
2.8378,403
2.8396,407
2.8418,413
2.8436,417
2.8451,419
2.8478,417
2.8499,411
2.8515,403
2.8526,397
2.8544,392
2.8578,389
2.8599,387
2.8614,385
2.8625,381
2.8643,376
2.8678,370
2.8696,365
2.8719,362
2.8735,361
2.8751,361
2.8761,359
2.8795,356
2.8811,350
2.8829,343
2.8848,337
2.8867,335
2.8885,334
2.8908,335
2.8933,337
2.8948,337
2.8976,334
2.8993,329
2.9014,325
2.9024,323
2.9042,325
2.9077,329
2.9094,333
2.9114,335
2.9124,334
2.9142,330
2.9159,324
2.9192,319
2.9209,318
2.9234,320
2.9244,325
2.9261,332
2.9292,337
2.9309,339
2.9326,338
2.9343,337
2.9376,334
2.9392,334
2.9409,335
2.9436,336
2.9453,337
2.947,337
2.9486,334
2.9503,332
2.9535,333
2.9549,335
2.9566,340
2.9596,343
2.9613,344
2.9631,343
2.965,339
2.9674,335
2.9691,333
2.9715,334
2.9735,337
2.9755,340
2.9765,343
2.9795,342
2.9812,340
2.9834,337
2.9852,337
2.9869,338
2.9894,343
2.9911,348
2.9928,351
2.9945,351
2.9963,348
2.998,343
3.0013,339
3.0037,338
3.0054,341
3.0072,348
3.0082,353
3.0116,356
3.013,356
3.0148,355
3.0171,352
3.0182,348
3.0217,347
3.0234,346
3.0252,348
3.0288,350
3.0288,351
3.0316,352
3.0329,353
3.035,353
3.036,353
3.0393,355
3.041,355
3.0426,354
3.0443,353
3.046,351
3.0493,348
3.0507,347
3.0524,347
3.0541,349
3.0575,352
3.0592,354
3.061,354
3.0627,352
3.0645,349
3.0663,345
3.068,342
3.0714,343
3.0731,346
3.0748,350
3.0766,352
3.0783,352
3.0801,350
3.0818,347
3.0852,346
3.0869,347
3.0887,352
3.0903,356
3.092,358
3.0953,357
3.0972,354
3.0989,349
3.1013,345
3.1024,342
3.1041,343
3.1072,346
3.109,349
3.1113,350
3.1136,349
3.1153,347
3.1169,344
3.1194,343
3.1216,347
3.1232,351
3.125,355
3.1267,356
3.1292,356
3.131,354
3.1328,352
3.1354,350
3.1361,350
3.1395,352
3.1413,355
3.1433,357
3.1443,358
3.1461,356
3.1495,353
3.1512,349
3.1527,349
3.1545,352
3.1562,357
3.1601,361
3.1611,363
3.1629,364
3.1646,364
3.1668,362
3.1695,361
3.1705,364
3.1721,366
3.1755,368
3.1768,367
3.1786,363
3.1803,357
3.182,351
3.1853,347
3.187,347
3.1887,349
3.1906,353
3.1939,356
3.195,358
3.1967,356
3.1984,353
3.2002,350
3.2036,350
3.2049,351
3.2065,355
3.2081,357
3.2114,355
3.213,350
3.2147,345
3.2164,342
3.2195,339
3.2212,341
3.223,347
3.2246,353
3.2262,358
3.2294,358
3.231,354
3.2326,349
3.2342,346
3.2375,346
3.2392,349
3.241,353
3.2426,355
3.2442,353
3.2474,349
3.2492,342
3.2504,338
3.2536,339
3.2555,343
3.2572,352
3.2589,361
3.2606,368
3.2622,374
3.2655,381
3.2668,391
3.2688,404
3.2715,421
3.273,444
3.2747,468
3.2763,488
3.2796,497
3.281,488
3.2827,462
3.2844,428
3.2879,398
3.2889,375
3.2906,358
3.2922,350
3.2955,342
3.2978,324
3.2991,294
3.3009,264
3.3026,248
3.3042,247
3.3075,261
3.3095,281
3.3106,304
3.3122,325
3.3153,342
3.3171,353
3.3189,359
3.3205,361
3.3238,361
3.3252,360
3.3271,359
3.3302,355
3.3316,351
3.3326,347
3.3342,345
3.3378,344
3.3388,347
3.3405,352
3.3438,354
3.3459,353
3.3469,350
3.3486,345
3.3503,343
3.3536,346
3.355,352
3.3567,359
3.3601,363
3.3618,364
3.3629,360
3.3645,356
3.3661,352
3.3697,351
3.3708,354
3.3724,361
3.3767,367
3.3777,370
3.3796,368
3.3806,364
3.3823,360
3.3856,357
3.3873,358
3.3891,361
3.3907,366
3.3936,369
3.3955,370
3.3976,369
3.3982,366
3.4015,363
3.4033,362
3.4056,363
3.407,366
3.4098,369
3.4108,368
3.4125,366
3.4141,362
3.4173,360
3.4192,360
3.421,364
3.4226,372
3.4259,378
3.4274,382
3.4298,380
3.4309,374
3.4325,366
3.4341,362
3.4372,363
3.4389,370
3.4408,378
3.4437,385
3.4457,388
3.4467,387
3.4483,383
3.4516,378
3.4534,375
3.4545,375
3.4564,377
3.4596,381
3.4614,383
3.4632,384
3.4654,384
3.4666,383
3.4683,383
3.4717,384
3.4734,387
3.4751,390
3.4769,392
3.4787,395
3.4806,396
3.4825,396
3.4857,395
3.4879,395
3.489,395
3.4909,397
3.4931,401
3.4942,404
3.4979,405
3.499,404
3.5007,402
3.5038,401
3.5053,402
3.507,404
3.5089,405
3.5106,405
3.5126,404
3.5144,401
3.5177,400
3.5195,400
3.5209,400
3.5229,401
3.5247,401
3.5264,399
3.5299,396
3.5317,392
3.5333,388
3.5343,385
3.5377,382
3.54,381
3.5415,380
3.5427,377
3.5446,373
3.5464,368
3.5488,361
3.5517,354
3.5537,351
3.5549,347
3.5575,345
3.5601,344
3.5619,340
3.5636,336
3.5652,333
3.5669,329
3.5699,325
3.571,323
3.5728,324
3.5745,326
3.5762,329
3.58,331
3.5811,332
3.583,330
3.5848,327
3.5865,323
3.5906,320
3.5919,319
3.5948,321
3.5954,324
3.5971,326
3.5992,326
3.6011,326
3.6031,326
3.6057,328
3.6078,330
3.6101,332
3.6109,331
3.6132,330
3.6149,329
3.617,329
3.6181,328
3.6214,328
3.6235,329
3.6245,330
3.6266,329
3.6279,327
3.6314,327
3.6334,327
3.6346,327
3.6367,328
3.6393,330
3.6414,334
3.6438,337
3.645,339
3.647,338
3.6494,334
3.6513,330
3.6522,329
3.6539,330
3.6574,334
3.6596,335
3.6606,334
3.6625,330
3.6641,326
3.6659,322
3.6692,321
3.6713,322
3.6724,325
3.6741,329
3.6767,333
3.6796,337
3.6813,339
3.6837,339
3.6848,336
3.6869,332
3.688,329
3.6916,327
3.6933,325
3.6955,324
3.6976,324
3.6993,324
3.7007,323
3.7034,323
3.7055,325
3.7066,327
3.7084,328
3.7116,327
3.7134,325
3.7149,325
3.7174,325
3.7194,328
3.7201,331
3.7233,334
3.7247,336
3.7269,334
3.7279,330
3.7313,325
3.734,319
3.7355,318
3.737,320
3.7392,324
3.7403,328
3.744,330
3.7451,330
3.7469,329
3.7492,326
3.7502,324
3.7534,323
3.7551,323
3.7562,326
3.7594,330
3.7615,334
3.7629,337
3.7658,336
3.7671,333
3.77,330
3.7718,329
3.7728,328
3.7747,328
3.7768,328
3.7796,327
3.781,326
3.7835,326
3.7851,326
3.7869,328
3.7891,332
3.7902,336
3.792,338
3.7955,336
3.7973,333
3.7984,329
3.8016,327
3.8037,328
3.8047,332
3.8069,335
3.808,338
3.8116,337
3.8129,335
3.8156,332
3.8173,329
3.8192,327
3.8213,328
3.8225,330
3.8241,332
3.8274,334
3.829,336
3.8316,336
3.8331,337
3.8355,339
3.8375,343
3.839,347
3.8415,351
3.8441,351
3.8446,349
3.8467,342
3.8496,335
3.8514,328
3.8533,325
3.8551,325
3.8569,327
3.8587,328
3.8614,330
3.8628,330
3.8646,328
3.8669,327
3.8679,325
3.8716,326
3.873,330
3.8754,334
3.8769,338
3.8793,339
3.8812,337
3.8823,333
3.8841,328
3.8873,325
3.8891,324
3.8908,325
3.8926,326
3.8944,325
3.8975,322
3.8993,320
3.9007,319
3.9035,321
3.9053,325
3.9067,331
3.9091,334
3.9117,335
3.913,332
3.9141,329
3.9178,326
3.9188,324
3.9205,325
3.9223,326
3.9255,328
3.9275,329
3.9291,329
3.9308,328
3.9324,331
3.9346,338
3.9373,349
3.9394,366
3.9406,386
3.9435,406
3.9443,424
3.9461,441
3.9479,454
3.951,461
3.9528,458
3.9548,444
3.9559,415
3.9595,382
3.9607,352
3.9626,328
3.9644,314
3.9661,310
3.9679,309
3.9715,299
3.9726,279
3.9744,261
3.977,252
3.9795,253
3.9817,263
3.9831,279
3.9855,298
3.9872,318
3.9889,336
3.9905,351
3.9934,359
3.9942,361
3.9977,358
3.9992,352
4.0003,346
4.0035,343
4.0056,343
4.0071,345
4.01,348
4.0115,349
4.0125,349
4.0142,346
4.016,345
4.0195,344
4.0213,344
4.0229,346
4.0251,348
4.0276,349
4.0293,349
4.031,348
4.0321,346
4.0339,346
4.037,349
4.0387,352
4.0405,356
4.0435,358
4.045,358
4.0468,357
4.0493,355
4.05,353
4.0534,352
4.0555,353
4.0573,354
4.0591,355
4.0606,355
4.0624,354
4.0641,353
4.0674,352
4.0691,351
4.0703,353
4.072,356
4.0754,358
4.0775,361
4.0788,361
4.0806,359
4.0823,356
4.0854,355
4.0869,357
4.0887,360
4.0905,365
4.0937,368
4.0947,368
4.0969,366
4.0992,364
4.1009,363
4.1027,363
4.1044,367
4.1074,372
4.1091,376
4.1112,378
4.1123,377
4.1154,375
4.1172,372
4.119,371
4.1215,372
4.1228,373
4.124,376
4.1276,379
4.1297,379
4.1314,378
4.1337,376
4.1354,375
4.1375,376
4.1386,378
4.142,381
4.1437,384
4.1451,385
4.1461,385
4.1494,385
4.1516,386
4.1527,388
4.1544,390
4.1577,392
4.1601,394
4.1614,396
4.1627,394
4.1644,392
4.168,391
4.1699,391
4.1715,394
4.173,397
4.1748,400
4.1765,402
4.1792,402
4.1815,401
4.183,398
4.1842,397
4.1877,398
4.1888,399
4.1906,401
4.1925,402
4.1956,400
4.1968,396
4.1991,391
4.2016,386
4.2038,384
4.205,384
4.2069,385
4.2087,385
4.2114,382
4.214,377
4.2158,369
4.2169,361
4.2188,355
4.2208,351
4.2243,349
4.2259,348
4.2275,345
4.229,342
4.2313,338
4.2335,334
4.2356,331
4.2374,330
4.24,330
4.2417,331
4.2441,332
4.2459,330
4.2475,327
4.2487,325
4.252,322
4.254,321
4.2554,321
4.2567,324
4.2602,326
4.2616,327
4.2637,327
4.2657,325
4.2675,322
4.2688,321
4.2712,322
4.274,324
4.277,327
4.2775,329
4.2797,330
4.2812,328
4.2841,326
4.286,325
4.2878,326
4.2895,328
4.2907,331
4.2938,332
4.2955,332
4.2978,330
4.2994,327
4.3021,327
4.3038,327
4.3053,330
4.3078,333
4.3094,336
4.3121,337
4.3139,336
4.3154,334
4.3175,332
4.3199,331
4.3219,332
4.3237,335
4.3256,337
4.3272,339
4.3289,340
4.3317,339
4.3339,337
4.3359,337
4.3382,338
4.34,341
4.3419,344
4.3437,345
4.346,344
4.3475,341
4.3487,338
4.3506,336
4.3524,337
4.3559,339
4.358,343
4.3611,347
4.3611,348
4.3636,347
4.3657,344
4.3669,341
4.369,339
4.3708,341
4.3727,344
4.3762,347
4.3762,350
4.3795,349
4.3817,347
4.3839,344
4.3856,342
4.3868,342
4.3888,344
4.3906,347
4.3935,349
4.3948,349
4.3975,347
4.3986,344
4.4018,343
4.4034,344
4.4055,347
4.4066,351
4.4088,353
4.4116,354
4.4137,353
4.4151,351
4.418,347
4.4191,346
4.4208,347
4.4233,349
4.4251,352
4.4275,354
4.4289,353
4.4306,350
4.433,347
4.4341,346
4.4375,346
4.4389,349
4.4411,351
4.4434,353
4.4456,353
4.4468,351
4.4487,349
4.4513,346
4.4528,346
4.4556,348
4.4573,350
4.4597,352
4.4608,353
4.4625,350
4.4643,348
4.4676,346
4.4697,346
4.4709,349
4.4727,352
4.4745,355
4.4762,357
4.48,357
4.4815,355
4.4828,353
4.4847,351
4.4868,352
4.4898,354
4.491,356
4.4938,357
4.4959,358
4.4967,357
4.4986,358
4.5011,359
4.5024,363
4.5058,368
4.5079,373
4.5106,377
4.5106,378
4.5139,374
4.5158,369
4.517,363
4.5195,358
4.5206,354
4.5235,354
4.5242,356
4.5273,357
4.5296,357
4.5308,355
4.5338,353
4.5344,353
4.5379,355
4.5401,358
4.542,361
4.5437,363
4.5447,362
4.5468,360
4.5495,357
4.5517,354
4.5529,352
4.5548,353
4.5575,355
4.5588,355
4.5613,354
4.5624,350
4.566,346
4.5677,344
4.5689,343
4.5707,345
4.5731,348
4.576,351
4.5778,352
4.579,352
4.5809,350
4.5828,349
4.5848,348
4.5867,348
4.5892,351
4.5904,353
4.5939,355
4.5956,355
4.5974,354
4.5993,353
4.6016,353
4.6028,357
4.6047,364
4.6076,375
4.6088,389
4.6107,405
4.6124,421
4.6157,436
4.6175,453
4.6186,468
4.6214,478
4.6235,480
4.6258,467
4.6268,436
4.6287,397
4.6307,362
4.6336,333
4.6355,318
4.6366,315
4.6383,317
4.6401,311
4.6437,292
4.6454,272
4.6472,261
4.649,262
4.6511,273
4.6535,293
4.6549,318
4.6567,342
4.6586,360
4.6603,370
4.664,373
4.6658,370
4.6683,366
4.6697,362
4.6712,360
4.673,361
4.6748,362
4.678,362
4.6798,361
4.6815,359
4.6829,357
4.6846,356
4.6881,357
4.6881,360
4.6913,363
4.693,365
4.6946,364
4.6965,362
4.6981,359
4.7013,357
4.703,358
4.7048,361
4.7066,365
4.7084,368
4.7101,370
4.7119,368
4.7154,366
4.717,364
4.7188,363
4.7205,364
4.7233,367
4.7256,370
4.7266,371
4.7283,371
4.7301,370
4.7334,368
4.735,368
4.7368,369
4.7386,372
4.7403,375
4.742,378
4.7456,378
4.7467,376
4.7483,374
4.7517,372
4.7536,373
4.7557,376
4.7585,379
4.7601,382
4.7616,382
4.7633,381
4.7652,379
4.767,378
4.7688,378
4.7707,379
4.7732,382
4.7757,384
4.7774,386
4.7788,385
4.7807,383
4.7825,381
4.7842,381
4.7878,382
4.7889,385
4.7912,389
4.7923,391
4.7955,392
4.7973,391
4.7996,389
4.8011,389
4.8036,390
4.8053,393
4.8076,396
4.8091,398
4.8102,399
4.812,398
4.8157,396
4.8172,395
4.8198,396
4.8213,397
4.8224,401
4.8244,404
4.8262,406
4.8299,406
4.8314,406
4.8334,405
4.8357,405
4.8373,406
4.8399,410
4.8416,414
4.8438,417
4.8453,418
4.8463,417
4.8482,415
4.8519,414
4.8536,414
4.8546,416
4.8577,419
4.8592,421
4.861,420
4.8633,418
4.8659,414
4.8681,411
4.8692,409
4.8713,407
4.8739,408
4.876,408
4.877,406
4.879,401
4.8808,394
4.8831,387
4.8843,381
4.888,377
4.8895,375
4.8906,373
4.8924,371
4.894,366
4.8977,361
4.8996,354
4.9008,349
4.9027,346
4.9068,345
4.9078,346
4.91,346
4.9115,344
4.9127,341
4.9146,336
4.9165,333
4.9182,332
4.922,332
4.9237,335
4.9248,336
4.9267,336
4.9287,335
4.9308,332
4.9337,329
4.9361,328
4.9373,329
4.9398,332
4.941,335
4.9429,337
4.9447,337
4.9466,335
4.9485,334
4.9519,333
4.954,334
4.9556,336
4.9568,339
4.9587,341
4.9606,341
4.9631,339
4.9661,336
4.9677,333
4.9689,333
4.9707,334
4.9746,336
4.9756,339
4.9774,340
4.9793,340
4.982,337
4.9839,335
4.9854,334
4.9867,335
4.9905,339
4.992,342
4.9935,344
4.9949,344
4.9977,342
4.9997,340
5.001,338
5.0029,339
5.0049,342
5.0068,345
5.0104,347
5.0112,348
5.0124,346
5.0158,344
5.0182,342
5.0199,341
5.0215,343
5.0227,346
5.026,349
5.0269,351
5.0298,349
5.0319,347
5.0332,345
5.0356,344
5.0375,346
5.0386,348
5.0421,351
5.0427,352
5.0455,351
5.0476,348
5.0488,346
5.0508,344
5.0528,344
5.0553,347
5.0582,349
5.0601,351
5.0612,351
5.0635,349
5.0647,346
5.0667,344
5.0685,343
5.072,345
5.074,349
5.076,351
5.0775,352
5.0787,351
5.0805,348
5.084,346
5.0859,345
5.0876,346
5.0895,348
5.0905,351
5.0923,352
5.0957,351
5.0977,349
5.0989,345
5.1009,343
5.1034,343
5.1056,345
5.1062,348
5.1099,351
5.1115,351
5.1127,349
5.1146,347
5.1179,345
5.1199,344
5.1209,345
5.1232,348
5.1257,350
5.1275,351
5.1287,350
5.1306,348
5.1324,346
5.1361,345
5.1375,346
5.14,348
5.1416,351
5.1431,352
5.1458,352
5.1475,350
5.1496,347
5.1508,346
5.1532,347
5.1547,350
5.1566,354
5.1601,356
5.1601,356
5.1639,354
5.1655,350
5.167,347
5.1701,346
5.1718,347
5.1739,351
5.1762,355
5.1779,360
5.1795,362
5.1807,364
5.1841,365
5.1849,366
5.1877,368
5.19,369
5.1916,371
5.1931,370
5.1961,367
5.1976,360
5.1989,354
5.2008,350
5.2027,348
5.2045,350
5.2081,354
5.2093,357
5.2117,357
5.2129,356
5.2147,354
5.2183,352
5.2204,352
5.2218,354
5.223,357
5.2249,359
5.2266,359
5.2286,357
5.2305,353
5.234,349
5.2362,347
5.2377,347
5.2389,348
5.2408,350
5.244,352
5.2459,352
5.2475,349
5.2487,347
5.2521,345
5.2537,345
5.2559,348
5.257,351
5.2605,353
5.2608,353
5.2636,352
5.2658,349
5.2669,348
5.2689,348
5.2708,350
5.2727,353
5.2758,356
5.277,359
5.2789,360
5.2808,362
5.2841,367
5.286,375
5.288,390
5.2898,409
5.2915,427
5.2935,445
5.2949,460
5.2975,469
5.2999,470
5.302,461
5.3043,440
5.3053,408
5.3075,375
5.3098,348
5.3111,328
5.3123,320
5.3158,318
5.3174,316
5.3186,303
5.3222,281
5.324,265
5.3259,262
5.3269,271
5.3289,288
5.3308,308
5.3327,327
5.3362,345
5.3379,358
5.3396,367
5.3408,372
5.3431,373
5.346,371
5.3478,366
5.349,361
5.3509,358
5.3528,356
5.3554,358
5.3583,361
5.3598,363
5.362,364
5.3637,362
5.3649,360
5.3667,359
5.3686,359
5.3704,361
5.3739,364
5.3756,366
5.3768,368
5.3787,367
5.3806,365
5.3842,363
5.3861,363
5.3878,364
5.3895,366
5.3907,369
5.3941,370
5.3963,370
5.3978,368
5.399,366
5.4016,365
5.403,366
5.404,368
5.4079,371
5.409,373
5.4108,373
5.4127,372
5.4147,370
5.4171,367
5.4199,367
5.4219,369
5.4235,372
5.4251,375
5.4279,376
5.4298,375
5.4317,373
5.4327,371
5.4357,370
5.4376,371
5.4397,374
5.4413,376
5.4423,378
5.4458,378
5.4475,375
5.4488,373
5.4506,372
5.4524,373
5.4561,376
5.4577,380
5.4589,382
5.461,383
5.4639,382
5.4656,379
5.4667,378
5.4703,379
5.4721,381
5.4738,384
5.4754,387
5.4765,389
5.4797,389
5.4817,388
5.4829,386
5.4848,386
5.4867,387
5.4885,392
5.4924,395
5.4934,397
5.4959,397
5.4969,397
5.4988,396
5.5007,396
5.5042,397
5.5062,401
5.5077,404
5.5089,408
5.5111,410
5.5121,409
5.5159,407
5.5171,406
5.5189,407
5.5208,409
5.5226,412
5.526,416
5.528,417
5.5297,418
5.5317,416
5.5328,414
5.5358,413
5.5385,415
5.5401,417
5.5416,419
5.5436,419
5.5447,416
5.5466,413
5.5484,408
5.5519,403
5.5541,399
5.5559,396
5.5576,394
5.5602,391
5.562,386
5.564,380
5.5658,372
5.567,365
5.5692,360
5.5724,358
5.5734,356
5.5755,354
5.5782,352
5.5804,347
5.5821,341
5.5844,336
5.5862,332
5.5879,331
5.5899,332
5.5922,333
5.5939,333
5.5953,331
5.5978,327
5.5999,323
5.6015,321
5.6027,320
5.6047,322
5.6065,324
5.6101,324
5.6118,325
5.6138,323
5.6155,320
5.6167,318
5.6203,318
5.6217,320
5.6238,323
5.625,326
5.6269,327
5.6288,326
5.6307,325
5.6341,323
5.6362,323
5.6368,325
5.6398,328
5.6418,331
5.6429,332
5.6446,332
5.6464,330
5.6499,327
5.6525,327
5.6536,327
5.6554,330
5.657,334
5.6597,337
5.6618,337
5.6635,336
5.6658,333
5.6681,332
5.6699,331
5.6716,333
5.6728,336
5.6748,339
5.6771,339
5.6799,339
5.6819,336
5.6836,334
5.6848,334
5.6872,335
5.6901,338
5.6921,341
5.6937,343
5.6951,343
5.6979,341
5.6999,337
5.7015,335
5.7031,335
5.7058,338
5.708,341
5.71,342
5.7114,342
5.7127,341
5.7154,337
5.7164,335
5.7182,335
5.7217,337
5.724,340
5.7258,343
5.7272,343
5.7299,342
5.731,338
5.7329,336
5.7348,335
5.7366,336
5.7404,339
5.7419,342
5.743,343
5.7448,343
5.7465,340
5.7484,339
5.7518,336
5.7539,337
5.7555,339
5.7567,342
5.7601,344
5.7618,344
5.7639,341
5.7655,338
5.7667,336
5.7684,336
5.772,337
5.7742,340
5.776,343
5.7774,344
5.7786,343
5.7822,341
5.7836,338
5.7862,337
5.7876,339
5.7887,341
5.7906,344
5.7935,345
5.7958,344
5.797,341
5.7989,338
5.8023,337
5.8044,339
5.8059,341
5.8077,343
5.8102,344
5.8108,344
5.8142,342
5.816,339
5.8176,338
5.8188,338
5.8208,340
5.8244,342
5.8259,345
5.8276,346
5.8298,344
5.831,342
5.8329,339
5.8347,339
5.8372,340
5.8403,343
5.8417,346
5.8432,348
5.8458,347
5.8476,344
5.8501,341
5.8518,339
5.853,340
5.8549,345
5.8581,352
5.8599,358
5.8613,362
5.8624,364
5.8662,363
5.8677,363
5.8689,361
5.8708,361
5.8736,361
5.8759,359
5.8769,355
5.8785,350
5.8819,344
5.883,340
5.8848,339
5.8867,339
5.8887,343
5.8918,346
5.8932,348
5.8955,349
5.8967,345
5.8984,343
5.9018,341
5.9038,341
5.9056,344
5.9068,346
5.9087,346
5.9106,344
5.9125,341
5.916,337
5.9181,334
5.9198,332
5.922,333
5.9231,335
5.9255,339
5.9278,340
5.9298,339
5.9309,337
5.9328,336
5.9346,335
5.9376,336
5.94,339
5.9422,342
5.9437,344
5.9448,344
5.9467,342
5.9485,340
5.9521,338
5.9535,338
5.9547,341
5.9569,345
5.9596,350
5.9619,354
5.9635,359
5.9647,367
5.9666,380
5.9689,396
5.9719,416
5.9735,436
5.9747,456
5.9763,468
5.9784,470
5.9821,458
5.9837,431
5.9849,395
5.987,362
5.9898,337
5.9918,322
5.9928,316
5.9947,316
5.9965,308
6.0005,286
6.002,257
6.0035,236
6.0047,233
6.0066,247
6.0101,270
6.0118,295
6.0137,318
6.0149,334
6.0173,346
6.02,353
6.0221,357
6.0238,360
6.0256,359
6.0267,357
6.0286,352
6.0305,347
6.0337,343
6.0354,341
6.0354,342
6.0386,346
6.0404,349
6.0438,351
6.0459,351
6.0475,349
6.0486,347
6.0504,346
6.054,347
6.056,350
6.0576,353
6.0588,355
6.0606,355
6.0639,354
6.066,352
6.0677,350
6.0696,351
6.0722,354
6.0742,357
6.0759,361
6.077,362
6.0788,362
6.0807,359
6.0828,357
6.0849,356
6.0869,358
6.0888,360
6.0907,363
6.094,364
6.0961,361
6.0976,360
6.0986,358
6.1017,357
6.1035,358
6.1053,361
6.107,364
6.1098,366
6.1113,366
6.1137,364
6.1151,361
6.117,358
6.1188,357
6.1204,359
6.1235,362
6.125,364
6.1277,365
6.1288,365
6.1305,364
6.1323,363
6.136,364
6.1371,367
6.1387,371
6.1404,374
6.1438,375
6.1457,375
6.1472,373
6.1491,371
6.151,370
6.1527,372
6.1544,375
6.1562,379
6.1597,383
6.1608,385
6.1626,385
6.1643,385
6.166,384
6.1698,385
6.1709,388
6.1728,391
6.175,394
6.1776,395
6.1793,394
6.1811,392
6.1828,391
6.1845,390
6.1862,394
6.1897,398
6.1917,403
6.1931,406
6.1956,407
6.1974,406
6.1997,404
6.2008,402
6.2025,403
6.2043,406
6.2078,410
6.2099,413
6.2115,414
6.2127,412
6.2145,408
6.2162,406
6.2196,405
6.2216,406
6.2229,407
6.2247,408
6.2264,408
6.2282,405
6.2318,400
6.2329,395
6.2346,389
6.2377,385
6.2398,382
6.2409,379
6.2426,374
6.2456,369
6.2471,363
6.2488,358
6.2505,355
6.2533,353
6.2563,353
6.2578,353
6.2589,350
6.2606,345
6.2624,339
6.2657,332
6.2671,326
6.269,324
6.2707,324
6.2742,325
6.276,327
6.2771,327
6.2788,325
6.2806,322
6.2823,319
6.2853,317
6.2877,318
6.2888,320
6.2906,321
6.2923,321
6.2958,321
6.2975,318
6.3,316
6.3018,315
6.3033,315
6.3061,316
6.3073,319
6.3091,321
6.3107,321
6.314,319
6.3148,317
6.3165,316
6.3183,318
6.3217,321
6.3231,325
6.3248,327
6.3281,328
6.3285,327
6.3304,324
6.3338,322
6.3356,320
6.3368,322
6.3398,325
6.342,328
6.3434,330
6.3457,329
6.3467,328
6.3494,325
6.351,325
6.3528,326
6.3547,327
6.3565,329
6.36,330
6.362,329
6.3637,328
6.3649,326
6.3667,326
6.3695,328
6.3705,332
6.3725,337
6.3758,340
6.378,340
6.3795,338
6.3807,335
6.3826,332
6.3858,332
6.3879,334
6.3896,338
6.3922,340
6.3936,341
6.3956,340
6.3968,336
6.3987,332
6.4004,329
6.4039,328
6.4058,331
6.4074,333
6.4102,334
6.412,334
6.4135,332
6.4147,330
6.417,328
6.4201,329
6.4212,332
6.4236,335
6.4248,339
6.4267,339
6.4286,337
6.4304,334
6.4329,332
6.4357,331
6.4375,332
6.44,336
6.4417,340
6.4432,341
6.4444,339
6.4478,336
6.4494,333
6.4518,331
6.4529,332
6.4548,335
6.4571,338
6.4603,341
6.4617,342
6.4632,342
6.4642,341
6.4678,340
6.469,340
6.4709,341
6.4727,343
6.4745,343
6.4777,342
6.4795,340
6.4818,338
6.4837,335
6.4849,335
6.4875,338
6.4886,341
6.4923,345
6.4937,346
6.496,344
6.4976,341
6.4988,337
6.5008,335
6.5042,335
6.5059,340
6.508,345
6.5098,349
6.5109,351
6.5127,350
6.5146,347
6.518,344
6.5199,342
6.5216,343
6.5229,345
6.5256,347
6.5266,349
6.5299,350
6.5316,350
6.5328,352
6.5366,356
6.5377,361
6.5377,367
6.542,372
6.5434,373
6.5456,371
6.5468,365
6.5501,359
6.552,353
6.5536,351
6.5552,349
6.5578,349
6.5597,349
6.5614,349
6.5627,348
6.5645,347
6.5684,345
6.5697,346
6.5709,349
6.5728,353
6.576,355
6.576,356
6.5781,355
6.5781,351
6.5781,347
6.5781,344
6.5781,342
6.5781,343
6.5906,344
6.5945,345
6.5945,343
6.5965,341
6.5985,339
6.6005,338
6.6025,340
6.6045,343
6.6063,346
6.6103,349
6.6103,348
6.6123,347
6.6143,344
6.6163,343
6.6183,342
6.6203,343
6.6221,344
6.6221,345
6.6221,346
6.6221,347
6.6221,348
6.6221,351
6.6221,357
6.6221,366
6.638,380
6.6409,396
6.6409,413
6.6409,431
6.6409,451
6.6409,471
6.6409,489
6.6409,500
6.6539,500
6.6559,485
6.6559,458
6.6614,428
6.6618,401
6.6618,378
6.6618,364
6.6618,356
6.67,339
6.67,306
6.67,271
6.6776,246
6.6776,236
6.6776,241
6.6826,258
6.6856,282
6.6856,308
6.6856,333
6.6903,353
6.6933,363
6.6933,367
6.6933,365
6.6933,361
6.7014,356
6.7014,353
6.7014,351
6.7014,351
6.7014,351
6.7014,350
6.7014,351
6.7014,351
6.7175,352
6.7175,353
6.7175,354
6.7233,356
6.7253,358
6.7273,360
6.7273,360
6.7273,359
6.7332,359
6.7364,359
6.7374,359
6.7391,360
6.7413,362
6.7424,364
6.7455,364
6.7472,364
6.749,363
6.749,362
6.749,362
6.749,364
6.757,367
6.759,369
6.761,371
6.7631,370
6.7648,370
6.7668,370
6.7668,371
6.7668,373
6.7725,374
6.7745,375
6.7745,374
6.7745,372
6.7806,369
6.7806,368
6.7806,368
6.7806,371
6.7806,375
6.7806,378
6.7806,378
6.7806,377
6.7965,373
6.7965,370
6.7965,369
6.7965,371
6.7965,376
6.7965,381
6.7965,384
6.7965,385
6.8126,383
6.8126,379
6.8126,377
6.8126,378
6.8126,381
6.8126,386
6.8126,390
6.8126,392
6.8283,391
6.8283,389
6.8283,388
6.8283,389
6.8283,390
6.8283,392
6.8283,395
6.8415,396
6.8441,395
6.8441,393
6.8441,392
6.8441,391
6.8441,393
6.8441,398
6.8441,402
6.8441,404
6.86,404
6.862,402
6.864,398
6.866,396
6.868,396
6.87,399
6.8721,405
6.8741,411
6.877,415
6.8791,416
6.8811,416
6.8831,415
6.8851,414
6.8871,414
6.8891,415
6.8891,416
6.8925,416
6.8925,414
6.8925,412
6.8925,409
6.8925,408
6.8925,407
6.8925,406
6.9075,404
6.9075,401
6.9075,398
6.9075,393
6.9075,386
6.9075,380
6.9075,376
6.9075,372
6.9235,371
6.9235,370
6.9235,366
6.9235,362
6.9235,355
6.9235,349
6.9235,344
6.9235,341
6.9394,340
6.9414,339
6.9414,337
6.9414,334
6.9414,329
6.9414,327
6.9414,328
6.9414,332
6.9552,337
6.9552,342
6.9552,342
6.9552,339
6.9552,333
6.9552,328
6.9552,326
6.9552,328
6.9713,332
6.9734,336
6.975,338
6.9766,336
6.9783,331
6.9814,328
6.9831,326
6.9831,329
6.9873,333
6.9881,339
6.9881,345
6.9881,346
6.9944,343
6.9965,338
6.9965,333
6.9965,332
7.0032,333
7.0032,337
7.0032,340
7.0032,342
7.0032,342
7.0032,339
7.0032,335
7.0032,331
7.0191,329
7.0191,330
7.0191,332
7.0191,333
7.0191,335
7.0191,336
7.0191,337
7.0191,339
7.0351,342
7.0351,345
7.0351,347
7.0415,349
7.0415,347
7.0415,344
7.0415,340
7.0415,335
7.0511,334
7.0511,335
7.0511,338
7.0511,341
7.0511,346
7.0511,351
7.0511,352
7.0511,352
7.0672,350
7.0672,349
7.0672,349
7.0672,350
7.0672,350
7.0672,349
7.0672,346
7.0672,343
7.0832,342
7.0832,343
7.0832,347
7.0832,352
7.0832,356
7.0832,359
7.0832,357
7.0832,354
7.0992,349
7.1006,346
7.1027,346
7.1027,349
7.1027,352
7.1027,353
7.1027,352
7.1027,350
7.1152,347
7.1159,346
7.1159,348
7.1159,353
7.1159,358
7.1159,361
7.1159,359
7.1159,354
7.1311,348
7.1331,344
7.1331,342
7.1331,343
7.1331,347
7.1331,353
7.1417,357
7.1417,357
7.1471,355
7.1471,350
7.1471,347
7.1471,346
7.1471,348
7.1471,351
7.1471,353
7.1471,353
7.1629,351
7.1629,349
7.1629,347
7.1629,346
7.1629,347
7.1629,349
7.1629,350
7.1629,350
7.1789,347
7.1789,345
7.1789,343
7.1789,343
7.1789,346
7.1789,351
7.1789,354
7.1789,354
7.1949,351
7.1949,347
7.1949,345
7.1949,348
7.1949,356
7.1949,367
7.1949,374
7.1949,376
7.2107,371
7.2107,363
7.2107,354
7.2107,346
7.2107,343
7.2107,346
7.2107,350
7.2107,353
7.2266,353
7.2266,350
7.2266,345
7.2266,339
7.2266,336
7.2266,337
7.2266,341
7.2266,346
7.2427,350
7.2447,354
7.2468,356
7.2488,354
7.2508,353
7.2528,351
7.2548,351
7.2568,350
7.2585,350
7.2606,348
7.2626,345
7.2646,340
7.2666,336
7.2686,336
7.2706,338
7.2726,340
7.2744,342
7.2764,342
7.2784,341
7.2804,338
7.2824,336
7.2844,336
7.2864,339
7.2884,344
7.2902,347
7.2932,347
7.2954,348
7.2964,348
7.2982,350
7.3007,355
7.3031,362
7.3052,374
7.3072,389
7.3093,406
7.3113,423
7.3128,441
7.3146,459
7.3162,475
7.3194,484
7.3211,482
7.323,462
7.3247,428
7.3264,393
7.3282,361
7.3316,336
7.3334,323
7.3355,319
7.3371,312
7.3396,293
7.3418,269
7.3426,250
7.3458,245
7.3476,254
7.3497,271
7.3507,292
7.3529,314
7.3557,334
7.3586,349
7.359,356
7.3617,359
7.3635,357
7.3658,353
7.3674,350
7.3699,348
7.3713,348
7.3737,350
7.3751,351
7.3767,351
7.3785,351
7.382,349
7.3838,349
7.3856,348
7.3874,350
7.3892,352
7.391,355
7.3928,356
7.3942,355
7.3976,353
7.3994,350
7.4019,350
7.403,350
7.4048,352
7.4067,353
7.4103,355
7.4103,355
7.414,355
7.4157,355
7.4178,355
7.4195,354
7.4211,355
7.4237,357
7.426,361
7.4271,364
7.4289,365
7.4306,365
7.4324,364
7.4357,364
7.4374,364
7.4398,365
7.4409,366
7.4439,366
7.4458,365
7.4477,363
7.4499,361
7.4512,361
7.4534,363
7.4545,367
7.458,371
7.4598,373
7.4616,373
7.4635,370
7.4658,366
7.467,363
7.469,363
7.4709,365
7.4728,368
7.4747,371
7.4768,373
7.4798,371
7.4815,369
7.4834,367
7.4852,368
7.4871,371
7.4889,375
7.4907,378
7.4925,380
7.4942,380
7.4979,379
7.4997,378
7.5009,377
7.5027,378
7.5046,381
7.5081,384
7.5098,387
7.5117,388
7.5137,388
7.5159,386
7.5171,385
7.519,386
7.5213,389
7.5239,392
7.5258,394
7.5276,394
7.5299,392
7.5311,389
7.533,387
7.5349,388
7.5368,390
7.5388,393
7.5409,396
7.5435,398
7.5461,399
7.548,399
7.5498,399
7.552,400
7.5539,401
7.5551,402
7.5571,404
7.5591,404
7.5616,402
7.5628,399
7.565,395
7.568,392
7.5699,390
7.5719,388
7.5737,386
7.5757,383
7.5777,378
7.5789,372
7.5808,366
7.5827,361
7.586,358
7.5878,356
7.5896,356
7.5915,354
7.5933,351
7.5943,345
7.5962,338
7.5998,330
7.6017,326
7.6036,324
7.6058,324
7.607,326
7.6096,327
7.6111,326
7.6121,324
7.6157,320
7.6176,317
7.6198,317
7.6211,318
7.623,321
7.6252,323
7.6263,324
7.6299,322
7.6317,319
7.6341,317
7.6357,317
7.6369,318
7.6389,320
7.6408,322
7.644,322
7.6454,321
7.6466,318
7.6485,315
7.6521,315
7.654,316
7.6561,319
7.6577,323
7.6595,326
7.6615,327
7.6635,326
7.6657,324
7.668,323
7.6691,323
7.6718,324
7.6736,326
7.6753,327
7.6774,327
7.6785,327
7.6803,325
7.684,323
7.6859,322
7.6881,324
7.6897,327
7.6909,331
7.6928,333
7.6945,332
7.6978,330
7.6998,328
7.7013,328
7.7037,329
7.7051,331
7.7074,334
7.7096,336
7.7117,335
7.7136,334
7.7151,331
7.718,329
7.7197,329
7.7213,330
7.7239,332
7.7258,335
7.7268,336
7.7291,336
7.732,333
7.7337,331
7.7353,330
7.7365,331
7.7401,333
7.7419,335
7.7435,336
7.7454,334
7.7474,332
7.7497,329
7.7514,328
7.7531,330
7.7561,332
7.7561,336
7.7599,338
7.7618,339
7.763,337
7.7649,335
7.7671,333
7.7683,333
7.7721,336
7.7739,339
7.7757,341
7.7776,341
7.7788,338
7.7806,334
7.7839,332
7.7857,332
7.7879,333
7.7891,337
7.7911,340
7.7937,340
7.7948,338
7.7968,336
7.7991,334
7.8019,333
7.8042,335
7.8058,339
7.8073,343
7.8086,346
7.812,345
7.8138,342
7.8158,338
7.8177,336
7.8199,336
7.8212,338
7.8231,340
7.825,342
7.827,343
7.8288,342
7.8307,340
7.834,339
7.8359,339
7.8377,340
7.8394,343
7.8411,343
7.8439,342
7.8445,339
7.8477,336
7.8494,335
7.8512,337
7.853,342
7.8548,349
7.8565,356
7.86,359
7.8618,361
7.8637,359
7.8649,355
7.8672,352
7.8699,349
7.8718,348
7.8738,347
7.8756,345
7.8778,342
7.879,338
7.8809,335
7.8828,333
7.8847,333
7.8867,335
7.8899,339
7.8917,341
7.893,342
7.8957,341
7.8975,339
7.8997,338
7.9009,339
7.9036,341
7.9055,343
7.9078,345
7.9091,345
7.9112,342
7.9124,338
7.9143,333
7.9162,331
7.9197,331
7.9214,333
7.9227,335
7.9244,338
7.9261,338
7.9295,336
7.9316,334
7.9327,331
7.9345,331
7.9363,333
7.9399,336
7.9416,338
7.9434,339
7.9452,337
7.9469,335
7.9488,334
7.9507,334
7.9524,337
7.9542,342
7.9579,348
7.9597,353
7.9611,360
7.9639,369
7.9662,381
7.9674,398
7.9697,418
7.9709,440
7.9729,462
7.9759,477
7.9777,481
7.9789,467
7.9808,437
7.9827,402
7.9846,371
7.9864,350
7.9901,337
7.9915,335
7.9933,332
7.9953,316
7.9972,286
7.9991,256
8.001,242
8.0028,243
8.0046,258
8.0071,281
8.0098,305
8.0117,326
8.0136,340
8.0155,347
8.0178,350
8.0194,351
8.0205,353
8.0228,354
8.0257,355
8.0275,353
8.0294,350
8.0313,346
8.0337,344
8.0349,344
8.0369,346
8.0397,349
8.0412,351
8.044,351
8.0458,350
8.047,347
8.0489,345
8.0509,345
8.0533,346
8.0562,349
8.0579,351
8.0601,353
8.0612,352
8.0632,350
8.0651,349
8.067,348
8.0689,350
8.0713,354
8.074,358
8.076,360
8.0777,360
8.0793,359
8.0812,357
8.0838,355
8.085,354
8.0871,357
8.0901,360
8.092,363
8.0937,363
8.0948,361
8.0967,358
8.0985,357
8.1021,357
8.1036,359
8.1058,362
8.107,366
8.1089,367
8.111,366
8.114,363
8.1163,361
8.1179,361
8.1197,362
8.1207,365
8.1227,368
8.1246,371
8.128,371
8.1292,370
8.1311,368
8.1331,367
8.1356,368
8.137,370
8.1399,374
8.1417,377
8.1434,378
8.1452,378
8.1472,375
8.1491,374
8.1516,373
8.1528,375
8.1547,379
8.158,381
8.1602,384
8.1619,384
8.1631,383
8.1655,383
8.167,384
8.1699,386
8.1718,389
8.1741,392
8.1753,394
8.1777,393
8.1789,392
8.1808,390
8.1826,389
8.1846,390
8.1864,394
8.19,397
8.1922,401
8.1937,403
8.1948,402
8.1967,399
8.1992,399
8.2021,399
8.2039,401
8.2061,406
8.2079,409
8.2091,410
8.2116,409
8.2128,406
8.2152,403
8.2163,400
8.2201,399
8.2223,400
8.2234,401
8.2259,401
8.227,398
8.2289,393
8.2311,387
8.2323,382
8.2341,378
8.2371,376
8.239,373
8.2409,371
8.2428,365
8.2428,359
8.2479,351
8.2501,344
8.2516,340
8.2528,337
8.2547,337
8.2564,337
8.2601,335
8.2616,331
8.2635,327
8.2659,324
8.267,322
8.2689,322
8.2707,323
8.2743,325
8.2762,325
8.2762,324
8.2799,322
8.2821,319
8.2837,317
8.2849,317
8.2868,319
8.289,322
8.292,324
8.2938,325
8.2956,323
8.2968,321
8.2986,318
8.3011,318
8.3028,320
8.3054,323
8.3075,326
8.3101,328
8.3117,327
8.3132,325
8.3161,323
8.318,323
8.3198,325
8.322,327
8.3232,330
8.3251,332
8.328,332
8.329,330
8.3316,328
8.3328,327
8.3347,328
8.3383,330
8.3383,333
8.3421,335
8.3421,336
8.3463,334
8.348,332
8.3496,330
8.3508,329
8.3527,330
8.3564,334
8.357,336
8.3598,337
8.3616,337
8.3635,334
8.3654,332
8.3678,331
8.369,331
8.3709,334
8.3732,337
8.3758,339
8.3787,339
8.3801,337
8.3817,334
8.3828,332
8.3847,332
8.3872,334
8.3902,337
8.392,339
8.3938,340
8.3957,337
8.3976,334
8.3995,332
8.4018,332
8.4031,334
8.4053,337
8.4083,339
8.41,340
8.41,339
8.4138,336
8.416,334
8.4171,333
8.419,334
8.4213,337
8.4247,341
8.4259,343
8.4276,342
8.4296,340
8.4308,338
8.4327,335
8.4356,335
8.4375,337
8.4398,340
8.441,342
8.4446,342
8.4446,340
8.4473,337
8.4484,335
8.452,335
8.4542,336
8.4557,340
8.457,343
8.4589,345
8.4604,343
8.4624,340
8.4661,337
8.4685,336
8.4696,337
8.4714,339
8.4734,342
8.4759,343
8.4769,343
8.4788,340
8.4811,336
8.4847,334
8.4847,334
8.4882,336
8.4894,339
8.4916,342
8.4928,343
8.4948,343
8.4967,340
8.5,338
8.5015,338
8.5039,339
8.5055,341
8.5065,343
8.5101,343
8.5101,342
8.5138,340
8.5163,339
8.5178,342
8.519,346
8.5209,353
8.5228,359
8.5248,363
8.5267,364
8.5287,362
8.5306,359
8.5325,354
8.5344,351
8.5378,349
8.54,348
8.5417,348
8.5429,347
8.5448,345
8.5476,343
8.5497,341
8.5514,340
8.5529,342
8.5548,345
8.5567,348
8.5604,350
8.5619,348
8.5641,344
8.5653,342
8.5675,339
8.5687,339
8.5706,341
8.5743,342
8.5743,342
8.5762,341
8.5799,337
8.5817,334
8.584,332
8.5857,332
8.5869,335
8.5889,338
8.5912,340
8.5939,340
8.596,339
8.5972,336
8.5998,335
8.6014,335
8.604,337
8.6061,340
8.6078,343
8.609,344
8.6114,343
8.6125,340
8.6162,338
8.618,338
8.6199,341
8.6221,347
8.6238,356
8.625,365
8.6279,376
8.6291,389
8.6309,405
8.6332,421
8.6361,439
8.6361,456
8.6396,467
8.6415,467
8.6441,453
8.6451,422
8.6469,382
8.6486,347
8.6519,320
8.6536,308
8.6559,308
8.657,312
8.6592,307
8.6617,286
8.6635,260
8.6652,246
8.6669,246
8.6686,261
8.6705,285
8.6722,311
8.6759,334
8.6774,351
8.6794,359
8.6818,360
8.683,358
8.6849,356
8.6874,357
8.6902,357
8.6919,357
8.6937,356
8.6957,353
8.6969,350
8.6988,348
8.7007,348
8.7043,350
8.7043,353
8.7081,356
8.7098,357
8.7116,356
8.7135,354
8.7159,352
8.7172,352
8.719,353
8.7212,356
8.7239,360
8.7258,362
8.7272,361
8.7284,360
8.732,358
8.7339,357
8.7362,357
8.7374,360
8.7396,363
8.7408,365
8.7427,366
8.7447,365
8.7466,363
8.7483,361
8.7523,360
8.7535,362
8.7558,364
8.757,367
8.7604,367
8.7612,367
8.7641,365
8.766,363
8.7679,363
8.7702,364
8.7718,367
8.773,370
8.7749,371
8.7769,371
8.7798,368
8.7821,366
8.7837,366
8.7849,366
8.7878,369
8.7899,371
8.7912,373
8.7931,374
8.7956,373
8.7976,371
8.7995,369
8.8018,370
8.803,372
8.8049,375
8.8072,379
8.81,380
8.8117,379
8.8139,378
8.815,376
8.817,375
8.8203,377
8.822,380
8.823,383
8.825,386
8.8266,387
8.8287,386
8.8305,386
8.8337,385
8.8347,387
8.8364,390
8.8383,394
8.8418,397
8.8439,399
8.845,398
8.8468,397
8.85,397
8.8523,398
8.8538,401
8.8549,405
8.8567,409
8.8602,412
8.8621,412
8.8637,411
8.8649,409
8.8669,410
8.8683,411
8.87,414
8.8735,417
8.8757,419
8.8767,419
8.8787,416
8.8819,412
8.8841,409
8.8859,407
8.8874,408
8.89,408
8.8918,407
8.8933,404
8.8949,398
8.8974,392
8.8994,386
8.9018,381
8.903,378
8.9049,375
8.9069,373
8.9087,369
8.9122,364
8.9134,356
8.9152,350
8.917,344
8.9189,342
8.9207,342
8.9225,342
8.9261,342
8.9277,339
8.9292,335
8.9311,330
8.933,327
8.9353,326
8.9364,328
8.9384,330
8.9402,331
8.9438,331
8.9456,328
8.9475,326
8.9496,324
8.9523,324
8.9539,326
8.9562,328
8.9574,331
8.9614,331
8.9614,330
8.9626,328
8.9655,325
8.9677,324
8.9688,325
8.9708,328
8.9726,332
8.9758,334
8.9776,333
8.9791,331
8.9809,328
8.9829,327
8.986,328
8.9872,331
8.9891,335
8.991,338
8.9944,339
8.9956,337
8.9979,334
8.9991,332
9.0019,332
9.0035,334
9.0056,338
9.0074,341
9.0094,342
9.0116,340
9.0128,339
9.0147,337
9.0169,337
9.02,338
9.0219,342
9.0242,345
9.0258,347
9.0269,347
9.0288,345
9.0307,343
9.0324,341
9.0361,341
9.038,344
9.0399,347
9.0419,349
9.0437,349
9.0459,347
9.0471,344
9.0497,342
9.0522,341
9.0522,343
9.0558,346
9.0581,349
9.0592,350
9.061,349
9.0628,346
9.0647,343
9.0666,343
9.0685,343
9.0722,346
9.0744,348
9.0755,350
9.0774,349
9.0796,346
9.0808,344
9.0826,342
9.0863,342
9.0863,345
9.0899,348
9.0917,350
9.0935,350
9.0957,348
9.0969,345
9.0988,342
9.1006,342
9.1041,344
9.1059,348
9.1078,351
9.109,351
9.1109,351
9.1128,348
9.1148,345
9.1167,344
9.119,345
9.1215,348
9.1238,351
9.125,352
9.127,351
9.13,349
9.1318,346
9.1339,345
9.1356,345
9.1371,348
9.1401,351
9.1426,354
9.1439,354
9.1456,352
9.1468,348
9.1499,346
9.1515,345
9.1533,347
9.1553,350
9.1575,353
9.1585,354
9.1602,354
9.1638,353
9.1656,352
9.1675,352
9.17,354
9.1712,356
9.1731,358
9.1749,360
9.1767,358
9.1786,355
9.1803,352
9.1839,352
9.1857,355
9.1877,361
9.1887,368
9.1904,374
9.1921,376
9.1957,375
9.198,372
9.1992,369
9.2015,366
9.2026,365
9.2063,364
9.2081,362
9.2098,359
9.2116,356
9.2138,351
9.215,347
9.2172,346
9.2203,347
9.2221,350
9.224,355
9.2259,356
9.2259,356
9.23,353
9.2312,350
9.2336,347
9.2348,347
9.2367,348
9.2385,349
9.2423,350
9.2423,349
9.2458,345
9.2479,342
9.2491,339
9.2511,338
9.2531,340
9.255,343
9.2574,345
9.2603,345
9.2618,343
9.263,341
9.2652,339
9.268,339
9.2699,341
9.2722,344
9.2737,347
9.2749,349
9.2767,348
9.2787,344
9.282,342
9.2838,340
9.2863,341
9.2879,345
9.289,350
9.2913,356
9.2923,363
9.2956,372
9.2979,384
9.2991,400
9.3017,419
9.3039,440
9.3058,460
9.3081,475
9.3099,479
9.3113,470
9.3125,444
9.3144,409
9.3177,373
9.3199,346
9.3211,329
9.3235,323
9.3251,323
9.3277,317
9.3296,295
9.3319,265
9.3332,244
9.3351,239
9.3371,251
9.339,275
9.3413,301
9.344,326
9.346,344
9.3472,355
9.3491,359
9.3511,360
9.3543,361
9.3558,362
9.357,362
9.36,361
9.3611,358
9.363,354
9.3649,351
9.3668,351
9.3686,353
9.3723,356
9.3741,359
9.3764,360
9.3774,360
9.3794,358
9.3812,356
9.3831,354
9.385,355
9.3872,358
9.3902,360
9.3902,363
9.3938,363
9.3958,361
9.3981,360
9.3999,358
9.4011,359
9.4034,361
9.4046,365
9.4071,368
9.4099,369
9.4099,369
9.4137,367
9.4156,364
9.4178,362
9.419,363
9.421,365
9.4233,367
9.4257,368
9.427,369
9.4299,367
9.4318,367
9.4337,367
9.4363,370
9.4378,375
9.4395,379
9.4411,382
9.444,381
9.4459,380
9.4479,376
9.4491,375
9.4511,374
9.4534,376
9.4552,380
9.4582,382
9.46,382
9.4619,381
9.4637,378
9.4659,376
9.4677,375
9.4689,376
9.4717,379
9.4729,382
9.4752,383
9.4777,383
9.4796,382
9.4819,381
9.4835,380
9.4847,382
9.4878,385
9.489,389
9.4909,391
9.4943,392
9.4956,391
9.4978,390
9.4995,390
9.5012,392
9.5029,396
9.5046,400
9.5065,403
9.5101,404
9.5106,402
9.5136,401
9.5155,400
9.5175,402
9.5198,405
9.521,411
9.5229,416
9.5249,418
9.5277,418
9.5294,415
9.5309,412
9.5337,412
9.5354,414
9.5371,418
9.5403,423
9.5417,427
9.5432,427
9.5456,425
9.5474,421
9.5494,418
9.5524,415
9.5538,414
9.5553,414
9.5583,413
9.5599,410
9.5609,405
9.5631,399
9.566,393
9.5679,391
9.569,388
9.5707,387
9.5724,385
9.5762,381
9.5777,376
9.5792,368
9.582,360
9.5835,353
9.5853,348
9.5876,345
9.5891,342
9.5921,339
9.5937,336
9.5951,332
9.5975,328
9.5994,325
9.6008,324
9.6038,325
9.6053,328
9.6069,330
9.6099,330
9.611,329
9.6131,327
9.6143,324
9.616,323
9.6198,323
9.6217,324
9.6239,325
9.625,325
9.6271,323
9.63,321
9.6312,320
9.633,320
9.6348,323
9.6367,327
9.6385,330
9.6403,333
9.6422,333
9.6458,332
9.6476,331
9.6498,330
9.651,331
9.6539,335
9.6558,339
9.6577,342
9.6595,342
9.6619,339
9.6637,337
9.666,334
9.6671,333
9.6694,334
9.6715,337
9.6738,340
9.6752,342
9.6777,341
9.6793,340
9.6812,340
9.6838,340
9.685,340
9.6873,343
9.6885,346
9.6921,348
9.6939,347
9.6957,345
9.6979,341
9.6991,338
9.701,337
9.7033,338
9.7065,341
9.7077,343
9.7101,344
9.7116,343
9.7128,342
9.7147,341
9.7179,340
9.7198,341
9.7217,343
9.725,346
9.725,348
9.7277,347
9.7287,346
9.7307,344
9.7325,343
9.7344,343
9.7378,345
9.7401,347
9.7418,348
9.7429,347
9.7448,344
9.7466,341
9.7499,339
9.7515,339
9.7538,341
9.7549,344
9.7569,347
9.7588,348
9.7621,347
9.7621,346
9.7658,343
9.7682,343
9.7698,346
9.771,348
9.7735,350
9.7754,351
9.7775,350
9.779,347
9.7809,345
9.7829,344
9.7847,346
9.7864,350
9.7898,353
9.7917,354
9.7934,353
9.7954,351
9.7971,348
9.799,347
9.8009,347
9.8032,349
9.8043,352
9.8076,353
9.8099,352
9.8109,350
9.8129,346
9.8147,344
9.8166,344
9.8185,347
9.8212,351
9.8229,354
9.8245,354
9.8263,353
9.83,351
9.8321,349
9.8337,348
9.8353,350
9.8378,352
9.8396,355
9.8417,356
9.8428,356
9.8445,353
9.8463,351
9.8498,349
9.8516,351
9.8537,356
9.8548,363
9.8569,369
9.8597,373
9.8616,373
9.8634,371
9.8654,368
9.8673,364
9.8696,362
9.8707,361
9.8726,359
9.8763,357
9.8763,354
9.8798,350
9.8816,348
9.884,347
9.8859,349
9.8871,353
9.889,357
9.8919,357
9.893,356
9.8951,353
9.8979,349
9.899,347
9.9018,346
9.9036,349
9.9056,351
9.908,353
9.9092,354
9.9116,352
9.9128,350
9.915,348
9.9177,347
9.9199,348
9.921,349
9.9229,351
9.9248,351
9.9279,347
9.9302,343
9.9313,339
9.9332,337
9.9351,338
9.937,341
9.9388,344
9.9408,348
9.944,349
9.9463,349
9.9475,347
9.9498,346
9.9513,347
9.9538,351
9.9545,357
9.9583,363
9.96,369
9.9619,376
9.9634,387
9.9657,402
9.9672,420
9.9702,442
9.972,467
9.9739,488
9.9758,500
9.9777,498
9.9792,481
9.9811,452
9.9829,420
9.9849,395
9.9872,377
9.9906,367
9.9917,362
9.9939,348
9.9951,316
9.997,276
9.9988,245
10.0008,231
10.0027,236
10.0046,254
10.0081,280
10.0098,307
10.0114,331
10.0131,347
10.0155,357
10.0166,362
10.0203,364
10.0222,364
10.0237,364
10.0253,361
10.0278,357
10.0292,352
10.031,348
10.0334,345
10.0346,345
10.0379,348
10.0399,352
10.0414,355
10.0443,356
10.0443,354
10.0479,353
10.0498,353
10.0515,354
10.0535,356
10.0557,359
10.0569,361
10.0588,360
10.061,358
10.0639,356
10.0657,358
10.0681,360
10.0699,365
10.0711,368
10.0739,371
10.0751,372
10.0776,370
10.0788,367
10.0807,362
10.0839,361
10.0858,362
10.0881,365
10.0897,368
10.0909,370
10.0928,371
10.0947,370
10.097,368
10.1,367
10.1018,367
10.1042,369
10.1058,371
10.1068,371
10.1087,370
10.1108,367
10.1138,365
10.1159,364
10.1175,366
10.1186,371
10.1218,377
10.1236,381
10.1254,381
10.127,379
10.1289,375
10.1308,370
10.1344,369
10.1363,370
10.1377,373
10.1395,379
10.1412,385
10.143,387
10.1448,387
10.1467,384
10.1486,382
10.1504,380
10.1523,381
10.156,382
10.1579,385
10.1597,387
10.1615,387
10.1635,386
10.1657,386
10.1669,387
10.1692,391
10.1703,396
10.1734,400
10.1757,404
10.177,405
10.18,404
10.1819,403
10.1837,401
10.1859,401
10.187,402
10.1888,403
10.1905,403
10.194,403
10.1958,404
10.198,404
10.1991,404
10.2009,406
10.2037,408
10.205,411
10.2067,413
10.2102,413
10.2119,412
10.2137,410
10.2156,409
10.2175,408
10.2191,409
10.221,410
10.2243,410
10.2259,408
10.2277,403
10.2299,397
10.2311,390
10.2334,383
10.2359,380
10.2377,378
10.2395,376
10.2418,373
10.2436,370
10.246,364
10.2475,358
10.2497,353
10.2508,349
10.2526,347
10.2545,344
10.2562,342
10.2599,337
10.2612,333
10.264,328
10.2658,324
10.2679,322
10.2691,320
10.271,321
10.2729,323
10.2748,325
10.2771,326
10.2799,327
10.2821,326
10.2837,325
10.2849,325
10.2868,325
10.2887,326
10.2921,327
10.2939,326
10.2958,323
10.2977,320
10.2994,318
10.3006,319
10.3035,322
10.3057,326
10.3077,330
10.3101,332
10.3115,331
10.314,328
10.3157,323
10.3174,323
10.3197,326
10.3208,332
10.3227,338
10.3245,341
10.3278,341
10.3293,336
10.3311,331
10.3329,327
10.3347,326
10.3379,329
10.3396,334
10.3415,339
10.3439,341
10.3455,339
10.3466,335
10.3484,333
10.3519,331
10.3536,333
10.3555,337
10.3566,340
10.36,341
10.3618,338
10.3635,334
10.3658,331
10.3669,332
10.3686,335
10.3704,341
10.3722,347
10.3758,349
10.3775,347
10.3795,343
10.3813,339
10.3829,336
10.3847,336
10.3864,340
10.3883,344
10.3901,346
10.3938,346
10.395,344
10.3973,341
10.4004,339
10.4019,342
10.4038,347
10.4057,350
10.408,352
10.4104,351
10.4118,347
10.413,343
10.415,340
10.417,338
10.419,337
10.4214,338
10.4238,338
10.4257,337
10.4276,335
10.4291,335
10.432,336
10.4331,341
10.4351,347
10.4373,352
10.4385,355
10.4419,355
10.4434,353
10.4455,348
10.4466,342
10.4484,337
10.452,335
10.4539,336
10.4558,339
10.4577,343
10.4595,347
10.4613,346
10.4631,344
10.4649,338
10.4669,335
10.4688,334
10.4706,335
10.473,338
10.476,340
10.4779,342
10.4797,341
10.4814,337
10.4838,335
10.485,336
10.4886,339
10.4891,344
10.4921,347
10.4939,347
10.4958,345
10.4976,341
10.4998,338
10.501,339
10.5029,343
10.5061,347
10.5072,350
10.5092,351
10.5116,348
10.5128,344
10.5147,338
10.517,335
10.52,335
10.5216,338
10.5234,342
10.5257,346
10.5269,349
10.5288,352
10.5307,354
10.5342,355
10.5358,355
10.5381,355
10.5396,354
10.5408,352
10.5427,348
10.5446,343
10.548,338
10.5499,333
10.552,332
10.5533,336
10.5547,340
10.5579,344
10.5601,346
10.5617,345
10.5635,342
10.5657,337
10.5676,333
10.5688,331
10.5707,333
10.5725,337
10.5761,341
10.5768,343
10.5797,342
10.5815,340
10.5835,337
10.5853,335
10.5872,335
10.589,335
10.5909,335
10.5932,334
10.5958,332
10.5978,331
10.599,331
10.6009,331
10.6028,332
10.605,335
10.6077,337
10.6094,340
10.6116,340
10.6139,339
10.615,338
10.6168,338
10.6185,339
10.622,342
10.6239,346
10.6258,350
10.628,355
10.6292,361
10.6311,371
10.633,384
10.6349,401
10.6382,424
10.6403,451
10.6415,476
10.6433,490
10.6454,490
10.6476,474
10.6488,441
10.6506,402
10.6539,370
10.6558,345
10.6581,329
10.6589,322
10.6606,314
10.6626,296
10.6643,269
10.668,246
10.6699,239
10.6723,248
10.6739,266
10.6757,288
10.6771,310
10.6783,327
10.6819,339
10.684,346
10.6857,349
10.6872,352
10.6903,354
10.6922,354
10.6922,353
10.6958,350
10.6977,346
10.7,345
10.7012,346
10.7031,349
10.7051,351
10.707,352
10.7093,350
10.7117,347
10.7129,344
10.7149,342
10.7167,342
10.7185,344
10.7204,347
10.724,349
10.7258,350
10.727,349
10.73,347
10.7323,345
10.7334,345
10.7354,347
10.7374,352
10.7399,358
10.7411,361
10.7436,362
10.7449,361
10.7483,357
10.7499,355
10.751,354
10.7529,355
10.7558,358
10.7569,360
10.7587,360
10.762,358
10.7639,357
10.7658,356
10.7682,356
10.7692,359
10.7709,363
10.7727,364
10.7746,363
10.7763,359
10.78,355
10.7823,353
10.7835,353
10.7856,357
10.7868,363
10.7887,369
10.7905,372
10.7924,372
10.7942,370
10.7978,368
10.7997,366
10.8021,366
10.8038,369
10.805,373
10.8069,376
10.8089,377
10.8121,376
10.8141,373
10.816,370
10.818,366
10.8199,365
10.8223,367
10.8241,371
10.8258,374
10.827,376
10.8288,376
10.8307,376
10.8326,377
10.8355,380
10.8378,384
10.839,386
10.841,387
10.8432,387
10.846,387
10.8475,387
10.8499,388
10.8511,390
10.853,392
10.8549,395
10.8568,397
10.8588,398
10.862,397
10.8639,395
10.8657,394
10.8669,394
10.8688,396
10.8707,398
10.8725,401
10.8761,402
10.8769,401
10.8798,399
10.8817,398
10.884,397
10.8852,397
10.8871,399
10.889,398
10.8908,397
10.8953,393
10.8953,389
10.8971,385
10.8999,381
10.9011,378
10.903,376
10.9052,374
10.9083,371
10.9101,366
10.9101,359
10.9141,351
10.9157,345
10.9169,341
10.9189,339
10.9208,339
10.923,339
10.9259,338
10.9278,334
10.9297,330
10.9318,327
10.933,325
10.935,325
10.9386,326
10.9403,327
10.9422,326
10.9422,322
10.9458,318
10.9477,314
10.9487,313
10.9508,315
10.9538,320
10.9559,325
10.9571,328
10.959,328
10.9611,326
10.9638,321
10.965,318
10.9667,317
10.9686,319
10.9722,323
10.974,328
10.9763,330
10.9773,330
10.9792,329
10.981,325
10.9829,323
10.9847,322
10.9865,323
10.9901,324
10.9919,326
10.9937,327
10.9957,329
10.9969,330
10.9987,331
11.0006,332
11.0043,334
11.0058,335
11.0076,336
11.0088,334
11.0105,332
11.0125,329
11.0161,327
11.018,326
11.018,328
11.0218,330
11.0237,332
11.0255,332
11.0272,332
11.0288,330
11.0307,328
11.0326,328
11.0364,330
11.0378,332
11.0399,333
11.0417,335
11.0427,335
11.0457,334
11.0472,332
11.0502,331
11.0519,331
11.0537,330
11.0549,331
11.0572,333
11.0594,333
11.0619,332
11.0636,331
11.0652,330
11.0679,330
11.0702,331
11.0712,333
11.0729,334
11.0746,334
11.0765,332
11.0799,330
11.0811,330
11.0836,330
11.0856,333
11.087,337
11.0894,339
11.0917,341
11.094,340
11.0957,338
11.097,336
11.0989,335
11.1008,337
11.1027,341
11.1052,343
11.1082,346
11.1099,344
11.1104,342
11.1137,338
11.1158,336
11.1175,335
11.1193,338
11.1219,343
11.1239,346
11.1257,348
11.1268,347
11.1291,344
11.1308,340
11.134,338
11.1358,338
11.1377,340
11.1393,342
11.142,343
11.1435,342
11.1458,339
11.1471,336
11.1492,334
11.1503,334
11.1522,337
11.1558,341
11.1576,345
11.16,346
11.1616,345
11.1628,341
11.1647,339
11.1664,337
11.17,338
11.1722,340
11.1738,341
11.1748,342
11.1766,341
11.1787,340
11.1811,341
11.1838,344
11.186,350
11.1877,357
11.1893,364
11.1922,366
11.1938,364
11.1952,359
11.1979,352
11.2,346
11.2017,342
11.2032,343
11.2058,344
11.2076,345
11.21,344
11.2116,342
11.2133,339
11.216,338
11.2178,338
11.2199,340
11.2212,343
11.2232,345
11.2251,346
11.2274,346
11.2284,343
11.2303,341
11.234,338
11.2363,338
11.2378,338
11.2395,338
11.2422,337
11.244,335
11.2451,332
11.2471,331
11.249,331
11.2523,333
11.2542,336
11.2557,339
11.2575,341
11.2591,340
11.2614,338
11.2637,335
11.2649,332
11.2676,331
11.2691,334
11.2717,338
11.2741,341
11.2754,344
11.2776,343
11.2788,342
11.2808,342
11.2833,345
11.2862,351
11.2881,361
11.29,373
11.2919,387
11.2937,402
11.2951,417
11.2962,434
11.2981,451
11.3014,466
11.3037,474
11.3057,469
11.3074,447
11.31,413
11.3107,380
11.3137,353
11.3154,334
11.3172,329
11.3202,329
11.3213,320
11.3232,296
11.3256,269
11.3272,250
11.3297,246
11.3311,255
11.3328,273
11.3345,297
11.338,321
11.3397,340
11.3415,352
11.3439,356
11.3457,355
11.347,351
11.3493,346
11.3519,344
11.3535,345
11.3559,346
11.3578,347
11.3601,347
11.3616,346
11.3631,343
11.3656,341
11.3678,343
11.3698,346
11.3717,350
11.3738,353
11.3763,354
11.378,351
11.3797,346
11.3818,343
11.3833,341
11.3859,344
11.3878,349
11.3897,353
11.3913,356
11.3934,356
11.3944,354
11.3962,353
11.3982,354
11.4018,356
11.4039,360
11.4052,363
11.4071,365
11.4095,365
11.4106,363
11.4126,361
11.4144,360
11.418,360
11.4196,363
11.4212,367
11.4244,370
11.4254,371
11.4272,370
11.4291,368
11.4309,366
11.4327,365
11.4346,367
11.4382,369
11.4404,373
11.4415,373
11.4432,373
11.4455,371
11.4467,369
11.4501,368
11.452,369
11.454,373
11.4559,377
11.457,380
11.4587,381
11.4618,379
11.4636,377
11.4657,376
11.4673,376
11.4703,378
11.4703,381
11.4735,383
11.4754,384
11.4772,383
11.4792,381
11.4811,379
11.4829,378
11.4848,380
11.4868,383
11.4891,388
11.4922,391
11.4939,392
11.4954,392
11.4978,392
11.4993,391
11.5023,392
11.5023,394
11.506,398
11.5079,401
11.5091,401
11.511,400
11.5128,399
11.5147,398
11.5165,400
11.5184,403
11.5207,407
11.5236,413
11.5255,415
11.5277,415
11.5288,413
11.5307,411
11.534,409
11.536,410
11.5379,412
11.5402,414
11.5417,414
11.5428,411
11.5446,406
11.5464,402
11.5501,399
11.5522,398
11.5538,398
11.555,399
11.5569,397
11.5588,393
11.5611,387
11.563,378
11.5649,372
11.5671,366
11.5683,363
11.5719,361
11.5741,360
11.5759,357
11.5775,352
11.5787,347
11.5805,342
11.5837,338
11.5859,337
11.5872,336
11.5891,337
11.5914,336
11.5939,333
11.596,329
11.5977,326
11.5988,323
11.6005,323
11.6042,326
11.606,328
11.6078,327
11.6097,325
11.6118,321
11.6139,318
11.6151,316
11.6169,316
11.6188,319
11.6207,324
11.6225,327
11.6261,328
11.6274,327
11.6288,325
11.6308,323
11.6327,322
11.6344,324
11.6363,326
11.6381,328
11.6419,329
11.644,327
11.6452,326
11.6471,324
11.649,324
11.651,325
11.6529,328
11.6552,331
11.6581,333
11.6599,334
11.6615,332
11.6637,330
11.665,329
11.6668,329
11.6692,332
11.6702,335
11.6734,338
11.6756,338
11.6773,336
11.6795,333
11.682,331
11.6835,331
11.6854,333
11.6865,336
11.6881,339
11.6917,341
11.6934,340
11.6957,337
11.6969,334
11.6988,333
11.7012,334
11.7022,337
11.7057,340
11.7075,342
11.7098,343
11.7115,341
11.7127,338
11.7144,336
11.7177,336
11.7195,338
11.7215,341
11.724,343
11.7258,344
11.727,343
11.7289,340
11.7308,339
11.7333,339
11.7359,341
11.7378,344
11.7402,347
11.7417,348
11.7432,347
11.7457,345
11.7476,341
11.75,340
11.7515,340
11.753,343
11.7559,346
11.7578,347
11.7601,347
11.7617,345
11.7629,343
11.7653,341
11.7663,342
11.7698,343
11.7719,347
11.7731,349
11.775,348
11.7769,347
11.7789,344
11.7815,341
11.7827,341
11.7863,342
11.7882,345
11.7882,348
11.7919,349
11.7937,348
11.7957,345
11.798,342
11.7992,341
11.8011,340
11.8033,342
11.8044,344
11.8082,346
11.81,345
11.81,343
11.8134,341
11.8152,339
11.8171,339
11.8189,342
11.8208,345
11.8227,348
11.826,347
11.8275,345
11.8294,341
11.8317,338
11.8329,336
11.8349,338
11.8377,342
11.8393,348
11.8425,353
11.8435,356
11.8461,357
11.8477,357
11.8489,357
11.8508,359
11.8527,362
11.8546,363
11.8583,362
11.8583,358
11.8613,352
11.8637,346
11.8661,342
11.8679,342
11.8697,345
11.8708,348
11.873,351
11.8761,352
11.8779,351
11.8797,349
11.8819,347
11.8831,347
11.8851,348
11.888,351
11.8892,353
11.8914,353
11.8934,351
11.8958,347
11.8974,343
11.8992,341
11.901,341
11.9029,343
11.9048,345
11.9067,346
11.9107,346
11.9107,344
11.9133,341
11.9157,340
11.9174,341
11.9197,345
11.9215,348
11.923,351
11.9257,350
11.9278,348
11.9297,344
11.9311,342
11.9323,341
11.936,343
11.9378,347
11.9389,350
11.9412,352
11.9423,354
11.9459,354
11.9478,357
11.9496,364
11.9511,376
11.953,393
11.9551,413
11.9575,431
11.9585,450
11.9615,464
11.9637,471
11.9649,469
11.9667,456
11.9686,429
11.9704,395
11.9737,365
11.9755,339
11.9774,322
11.9797,315
11.9809,312
11.9828,303
11.9846,282
11.9869,262
11.9895,251
11.9917,254
11.9929,266
11.9948,284
11.9968,305
11.9985,325
12.0005,344
12.0023,357
12.0056,365
12.0069,367
12.0109,363
12.0109,358
12.0138,352
12.0156,347
12.0178,346
12.0193,347
12.0217,351
12.0236,353
12.0248,353
12.0265,352
12.0285,350
12.0302,348
12.0342,349
12.0364,351
12.0374,355
12.0389,357
12.0408,359
12.0426,359
12.0444,357
12.0476,355
12.0495,354
12.0522,356
12.0539,359
12.0551,362
12.0578,364
12.0606,363
12.0606,362
12.064,359
12.066,358
12.0672,358
12.0692,361
12.0709,364
12.0728,366
12.0747,366
12.0778,365
12.0797,362
12.0815,361
12.084,361
12.0854,363
12.0864,367
12.0901,368
12.092,370
12.0937,368
12.0957,365
12.0969,363
12.0988,362
12.1007,363
12.1025,366
12.1062,369
12.1062,371
12.1098,371
12.1115,369
12.1134,367
12.1154,367
12.1177,368
12.1189,371
12.1208,374
12.1228,377
12.1247,378
12.1265,377
12.1284,375
12.1324,374
12.1336,374
12.1359,376
12.1371,380
12.139,383
12.1424,384
12.1424,384
12.145,382
12.1479,381
12.1498,381
12.151,383
12.153,387
12.155,391
12.1574,393
12.1603,394
12.1616,393
12.1637,392
12.1649,392
12.1668,394
12.1688,397
12.1707,402
12.1743,406
12.1761,408
12.1778,408
12.1788,407
12.1806,406
12.1827,406
12.1848,409
12.1862,412
12.1901,416
12.1918,418
12.1929,417
12.1958,415
12.197,412
12.1988,411
12.2007,412
12.2025,412
12.2043,414
12.208,414
12.2099,412
12.2118,407
12.213,402
12.2149,397
12.2168,393
12.2187,392
12.2205,391
12.2224,389
12.2261,384
12.227,377
12.23,369
12.2319,362
12.2338,356
12.2361,353
12.2374,351
12.2394,348
12.2418,346
12.2435,341
12.2446,336
12.2464,331
12.2504,327
12.2516,326
12.2535,327
12.2554,328
12.2571,329
12.2599,328
12.261,325
12.2622,322
12.2656,320
12.2674,319
12.2691,321
12.2708,323
12.2729,324
12.2757,324
12.2776,323
12.2787,321
12.2805,319
12.2823,319
12.2856,321
12.2878,324
12.2889,326
12.2907,327
12.2925,326
12.2957,323
12.2975,321
12.2994,320
12.3018,321
12.3029,325
12.3056,328
12.3074,330
12.3091,330
12.3114,328
12.3132,326
12.3151,325
12.3157,325
12.3157,328
12.3198,332
12.3218,334
12.3239,335
12.3239,333
12.3278,331
12.3278,329
12.3278,329
12.3278,332
12.3357,335
12.3357,338
12.3357,340
12.3357,338
12.3357,336
12.3357,333
12.3357,333
12.3515,335
12.3515,338
12.3515,342
12.3515,343
12.3515,343
12.3515,340
12.3625,337
12.3625,336
12.3673,336
12.3673,338
12.3673,341
12.3673,343
12.3673,344
12.3673,342
12.3673,339
12.3673,337
12.382,337
12.382,339
12.382,342
12.382,344
12.3904,344
12.3931,343
12.3931,341
12.3931,339
12.399,339
12.4018,340
12.4018,344
12.4038,347
12.4073,348
12.4094,347
12.411,344
12.411,341
12.4155,339
12.4155,339
12.4155,342
12.4155,345
12.4234,346
12.4245,346
12.4275,344
12.4291,341
12.4307,339
12.4323,339
12.4341,341
12.4341,343
12.4341,345
12.4413,346
12.4425,344
12.4445,342
12.4445,340
12.4445,339
12.4445,340
12.4445,343
12.4552,346
12.4552,347
12.4552,345
12.4552,343
12.4625,339
12.4625,338
12.4625,339
12.4625,341
12.4713,345
12.4713,347
12.4713,347
12.4713,345
12.4713,342
12.4713,340
12.4713,340
12.4713,342
12.4873,345
12.4873,348
12.4873,348
12.4873,347
12.4873,345
12.4873,343
12.4873,343
12.4873,345
12.5032,347
12.5032,350
12.5032,351
12.5032,350
12.5032,347
12.5032,345
12.5032,345
12.5032,348
12.5193,355
12.5193,362
12.5193,368
12.5193,371
12.5193,371
12.5193,368
12.5193,366
12.5193,364
12.5353,363
12.5353,362
12.5353,361
12.5353,358
12.5353,353
12.5353,349
12.5353,346
12.5353,345
12.5512,347
12.5526,350
12.5526,354
12.5526,356
12.5526,356
12.5526,353
12.5628,351
12.5628,348
12.5672,348
12.5693,351
12.5693,353
12.5693,353
12.5693,351
12.5693,347
12.5693,341
12.5693,337
12.5833,335
12.5833,335
12.5833,338
12.5833,340
12.5833,340
12.5833,339
12.5833,338
12.5833,336
12.5992,335
12.5992,336
12.5992,340
12.5992,344
12.5992,346
12.5992,345
12.5992,343
12.5992,341
12.6152,339
12.6152,340
12.6152,343
12.6152,348
12.6152,354
12.6152,359
12.6152,365
12.6152,374
12.6313,388
12.6313,405
12.6313,425
12.6313,446
12.6313,464
12.6313,474
12.6313,474
12.6313,459
12.6473,430
12.6473,393
12.6473,361
12.6473,337
12.6473,323
12.6473,319
12.6473,319
12.6473,311
12.6629,288
12.664,261
12.666,244
12.668,244
12.67,259
12.6721,283
12.6741,308
12.6761,329
12.6793,346
12.6813,356
12.6833,362
12.6853,365
12.6873,366
12.6893,365
12.6913,363
12.6934,359
12.6954,355
12.6974,351
12.6974,350
12.7012,352
12.7031,355
12.7053,358
12.7072,360
12.7086,360
12.7109,358
12.7115,356
12.7115,354
12.7115,355
12.7115,358
12.7115,361
12.7115,363
12.7246,363
12.7246,362
12.7246,360
12.7246,358
12.7246,358
12.7246,361
12.7246,363
12.7246,366
12.7405,368
12.7405,367
12.7405,365
12.7405,363
12.7405,363
12.7405,365
12.7405,368
12.7405,371
12.7566,373
12.7586,373
12.7586,372
12.7633,369
12.7633,368
12.7633,369
12.7633,371
12.7633,374
12.7727,375
12.7747,376
12.7767,374
12.7787,372
12.7807,369
12.7827,370
12.7848,372
12.7868,375
12.7885,378
12.7905,379
12.7925,379
12.7945,376
12.7966,374
12.7986,374
12.8006,375
12.8026,378
12.8043,381
12.8063,383
12.8083,383
12.8104,382
12.8124,380
12.8144,379
12.8164,381
12.8184,384
12.8201,388
12.8221,390
12.8241,391
12.8262,390
12.8282,388
12.8302,387
12.8322,388
12.8342,392
12.8359,397
12.8379,401
12.84,403
12.842,403
12.844,402
12.846,401
12.848,402
12.85,404
12.853,408
12.8541,413
12.8573,416
12.8589,416
12.8605,415
12.8633,413
12.8633,412
12.8633,414
12.8675,417
12.8675,420
12.8675,422
12.8675,422
12.8675,420
12.8675,416
12.8675,412
12.8833,412
12.8833,413
12.8833,414
12.8833,416
12.8833,415
12.8833,411
12.8833,405
12.8833,399
12.8992,395
12.9013,391
12.9033,389
12.9053,386
12.9053,382
12.9053,376
12.9053,368
12.9053,360
12.9152,354
12.9152,350
12.9152,348
12.9152,347
12.9152,346
12.9152,343
12.9152,338
12.9152,332
12.9312,327
12.9312,325
12.9312,324
12.9312,325
12.9312,326
12.9312,326
12.9312,323
12.9312,320
12.9473,317
12.9473,316
12.9473,317
12.9473,321
12.9473,324
12.9473,326
12.9473,325
12.9473,323
12.9633,321
12.9633,319
12.9633,320
12.9633,323
12.9633,326
12.9633,328
12.9633,328
12.9633,326
12.9791,324
12.9791,322
12.9791,323
12.9791,325
12.9791,328
12.9791,331
12.9791,331
12.9791,331
12.9953,328
12.9953,326
12.9953,325
12.9953,327
12.9953,330
12.9953,334
12.9953,335
12.9953,335
13.0113,332
13.0123,329
13.014,327
13.0158,327
13.0191,329
13.0209,333
13.0227,335
13.0244,335
13.0261,334
13.0295,332
13.0313,331
13.033,331
13.0347,334
13.0368,337
13.0379,340
13.0414,340
13.0439,338
13.045,335
13.0468,333
13.0486,331
13.0505,332
13.0523,335
13.0542,337
13.056,338
13.0594,337
13.0615,335
13.0626,332
13.0644,331
13.0666,332
13.0694,335
13.0712,339
13.0729,342
13.0751,341
13.0776,338
13.0794,335
13.0813,334
13.0831,334
13.0848,336
13.0865,339
13.0883,341
13.0917,343
13.0935,342
13.0957,340
13.0968,338
13.0985,337
13.1003,338
13.1038,340
13.1054,342
13.1073,343
13.1092,342
13.111,339
13.1129,337
13.1146,336
13.1164,338
13.1199,341
13.1216,344
13.1236,346
13.1247,346
13.1279,343
13.1298,340
13.1309,338
13.1326,338
13.1343,341
13.1377,344
13.1395,347
13.1413,347
13.1429,345
13.1448,342
13.1465,339
13.1482,338
13.1517,339
13.1539,342
13.155,346
13.1572,347
13.16,346
13.1619,344
13.1637,342
13.1654,341
13.1672,342
13.1696,345
13.1707,349
13.1725,351
13.1743,351
13.1779,349
13.1797,346
13.1816,343
13.1838,342
13.1855,344
13.1866,348
13.1883,352
13.1921,353
13.1938,352
13.1956,350
13.1975,349
13.1997,352
13.2012,357
13.2037,363
13.2057,369
13.2069,371
13.2088,370
13.2103,366
13.214,362
13.2157,358
13.2181,355
13.2199,355
13.2212,355
13.2236,354
13.2254,352
13.2269,348
13.2286,344
13.2305,342
13.2341,341
13.2341,343
13.238,346
13.2397,349
13.2416,349
13.2434,348
13.2457,346
13.2469,344
13.2488,345
13.2507,347
13.2526,349
13.256,351
13.2579,351
13.2593,347
13.2611,341
13.263,336
13.2649,333
13.2668,332
13.2688,334
13.2707,337
13.2727,339
13.2753,339
13.2763,337
13.28,334
13.2818,333
13.2839,333
13.2851,336
13.287,339
13.2889,342
13.2919,342
13.2939,340
13.2956,336
13.2971,333
13.2983,332
13.3021,335
13.3036,342
13.3058,351
13.3076,363
13.3099,377
13.3113,392
13.3135,409
13.3157,427
13.3174,447
13.3185,467
13.3221,482
13.3235,487
13.3256,478
13.327,453
13.3298,419
13.3315,390
13.3338,367
13.3349,351
13.3371,346
13.3399,343
13.3417,329
13.3435,298
13.3446,262
13.3464,237
13.3498,232
13.3519,244
13.353,267
13.3548,296
13.3566,322
13.36,342
13.3619,353
13.3637,358
13.365,358
13.3671,357
13.3681,357
13.3716,357
13.3728,355
13.3747,354
13.3767,351
13.3785,346
13.3804,344
13.3821,344
13.3857,346
13.3876,349
13.3894,352
13.3914,353
13.3938,351
13.3953,348
13.3966,346
13.3983,346
13.4021,349
13.4037,354
13.4049,359
13.4069,361
13.4103,361
13.4119,359
13.4138,356
13.415,355
13.417,355
13.4197,358
13.4221,361
13.4239,364
13.4258,364
13.4275,362
13.4287,359
13.4307,356
13.4325,356
13.4348,358
13.4378,362
13.44,365
13.4417,366
13.4428,364
13.445,362
13.448,359
13.4499,357
13.4511,360
13.453,364
13.4548,367
13.4571,369
13.4596,368
13.4614,366
13.4634,365
13.4656,365
13.4667,367
13.4686,373
13.4723,379
13.4742,383
13.476,383
13.4779,381
13.4797,378
13.4815,375
13.484,373
13.4858,373
13.4873,375
13.4902,377
13.492,377
13.4938,375
13.4957,374
13.4978,374
13.5002,376
13.5018,379
13.503,382
13.505,386
13.5073,389
13.5103,390
13.5119,390
13.5135,389
13.5154,389
13.5166,391
13.5185,393
13.5221,396
13.524,398
13.5259,399
13.5277,398
13.5297,397
13.5309,396
13.5332,397
13.5361,400
13.5379,404
13.54,407
13.5417,410
13.5429,410
13.5454,408
13.5466,407
13.5499,406
13.552,407
13.5538,410
13.5554,412
13.557,412
13.56,411
13.5618,409
13.5637,408
13.5658,408
13.5676,410
13.5699,413
13.5711,416
13.5735,417
13.5747,413
13.5773,407
13.5784,400
13.5801,393
13.5836,388
13.5854,384
13.5877,383
13.5893,380
13.5905,376
13.5929,369
13.5958,362
13.5977,355
13.6001,351
13.6019,349
13.6031,346
13.6057,344
13.6073,340
13.6099,335
13.6118,330
13.6137,326
13.6148,324
13.6168,325
13.6186,329
13.6205,332
13.6242,333
13.626,332
13.627,329
13.6291,325
13.631,322
13.6329,321
13.6349,322
13.6376,323
13.6388,325
13.6413,324
13.6423,322
13.6456,320
13.6474,319
13.6497,321
13.6513,324
13.6525,330
13.6563,334
13.6563,337
13.6601,335
13.6601,331
13.6639,328
13.6663,326
13.6678,327
13.6691,329
13.671,333
13.6736,336
13.6765,337
13.6769,335
13.6793,332
13.6814,330
13.6832,330
13.685,333
13.6879,336
13.6897,338
13.6911,338
13.6932,336
13.6959,333
13.697,332
13.6987,332
13.7021,333
13.7039,336
13.706,339
13.7071,340
13.7089,340
13.7105,338
13.7124,336
13.7157,335
13.7174,337
13.7198,341
13.7214,346
13.724,349
13.7261,350
13.7277,347
13.7288,345
13.731,341
13.7339,340
13.7355,341
13.7375,343
13.7387,345
13.7405,346
13.7424,345
13.7447,342
13.7464,340
13.7483,341
13.7501,344
13.7538,347
13.7562,350
13.7577,351
13.7589,350
13.7611,347
13.7636,345
13.7655,344
13.7673,345
13.7693,348
13.7717,351
13.7729,353
13.7748,353
13.777,352
13.78,349
13.7819,348
13.7838,349
13.7866,351
13.7866,353
13.7897,355
13.7917,354
13.7934,351
13.7956,348
13.7968,346
13.7987,346
13.8006,348
13.8037,349
13.806,351
13.8071,350
13.8091,347
13.8112,343
13.8123,341
13.816,342
13.8182,347
13.8197,354
13.8209,359
13.8227,362
13.8246,361
13.8263,356
13.8298,351
13.8316,347
13.8335,345
13.8357,346
13.8368,347
13.8388,349
13.8407,349
13.8425,347
13.8443,345
13.8481,344
13.8496,346
13.8508,352
13.8527,357
13.8545,361
13.8581,360
13.8598,357
13.8614,351
13.8634,346
13.8654,345
13.8677,349
13.8696,357
13.8715,365
13.8734,372
13.8754,374
13.8775,372
13.8787,367
13.881,361
13.882,355
13.8856,352
13.8877,350
13.8889,349
13.8913,349
13.8935,349
13.8952,346
13.8969,344
13.8991,343
13.9009,344
13.9029,346
13.9047,350
13.9069,351
13.9097,353
13.9116,352
13.9135,352
13.9158,353
13.917,354
13.9189,355
13.9209,356
13.9228,354
13.9248,350
13.927,345
13.9299,339
13.9317,337
13.9337,337
13.9361,340
13.9373,345
13.9399,351
13.9412,353
13.9437,352
13.9447,349
13.9467,344
13.9486,341
13.9503,340
13.954,342
13.956,344
13.9576,347
13.9592,349
13.9603,350
13.962,351
13.9657,353
13.9676,356
13.9697,361
13.9708,367
13.9726,373
13.9759,382
13.9777,391
13.9789,406
13.9808,425
13.9827,448
13.9846,473
13.9879,492
13.9898,503
13.9918,499
13.9932,475
13.996,442
13.9972,408
13.9991,380
14.001,360
14.0029,353
14.0048,348
14.0081,334
14.0102,303
14.0118,269
14.013,245
14.0149,238
14.0168,247
14.0192,266
14.0204,292
14.0239,318
14.0258,340
14.0277,354
14.0289,361
14.0309,364
14.0331,366
14.0364,368
14.0376,368
14.039,368
14.041,365
14.0435,359
14.045,353
14.048,349
14.0499,346
14.0522,349
14.0538,352
14.055,356
14.0567,359
14.0587,359
14.0604,357
14.0623,356
14.066,355
14.0678,357
14.0696,359
14.0711,362
14.0742,363
14.0754,362
14.0773,360
14.0796,358
14.0808,358
14.0827,359
14.0851,362
14.0882,366
14.09,369
14.0921,370
14.0936,368
14.0948,364
14.0968,361
14.0986,359
14.1018,359
14.1037,361
14.1049,363
14.1068,365
14.1086,366
14.1119,366
14.1139,367
14.1163,368
14.1177,372
14.1189,375
14.1207,378
14.1225,379
14.1244,379
14.1275,378
14.1297,375
14.1308,372
14.1321,371
14.1358,372
14.1374,375
14.1396,377
14.1406,379
14.1426,377
14.1445,376
14.1481,375
14.1503,376
14.1515,379
14.1534,384
14.1557,388
14.1569,390
14.1587,388
14.1604,383
14.1641,380
14.1641,378
14.1675,380
14.1693,385
14.1711,391
14.1729,393
14.1748,393
14.1768,389
14.1797,386
14.181,386
14.1829,388
14.1848,394
14.1866,401
14.1902,408
14.1902,412
14.1938,411
14.1954,407
14.1976,404
14.1987,403
14.2007,405
14.2025,407
14.2065,409
14.2077,410
14.2099,410
14.2109,410
14.2128,409
14.2145,409
14.2179,411
14.2201,414
14.2213,417
14.2237,418
14.2248,416
14.2268,412
14.2301,407
14.2313,405
14.2337,406
14.2349,409
14.2373,411
14.2385,411
14.2418,408
14.2433,400
14.2452,391
14.247,383
14.2488,379
14.2507,377
14.2525,377
14.2542,378
14.2581,374
14.2597,369
14.261,361
14.2622,355
14.2657,350
14.2657,349
14.269,349
14.2709,351
14.2727,351
14.276,349
14.2777,345
14.2797,339
14.2809,334
14.2832,330
14.286,329
14.2879,330
14.2898,332
14.292,334
14.293,334
14.2961,332
14.2976,330
14.2988,329
14.3014,329
14.3038,332
14.3055,335
14.3077,338
14.3095,338
14.3117,336
14.3135,333
14.3157,330
14.3178,328
14.3187,330
14.3271,332
14.3276,336
14.3286,340
14.3286,341
14.3286,340
14.3304,338
14.3337,337
14.3355,336
14.3377,337
14.3392,339
14.3421,341
14.3439,341
14.3457,340
14.3475,339
14.3497,338
14.3509,339
14.3528,341
14.3562,343
14.3579,346
14.3598,347
14.3608,345
14.3628,343
14.3647,340
14.3664,339
14.3705,340
14.3715,341
14.3737,341
14.3749,340
14.3771,339
14.3782,339
14.3819,342
14.3838,346
14.3862,350
14.3878,355
14.389,359
14.3909,360
14.3926,357
14.3944,351
14.3962,345
14.4001,341
14.402,339
14.4038,341
14.4049,346
14.4068,351
14.4087,354
14.412,354
14.4138,354
14.4156,354
14.4181,356
14.4197,359
14.4209,360
14.4228,359
14.4261,357
14.4278,352
14.4297,347
14.4315,343
14.4339,342
14.4358,344
14.437,348
14.4389,351
14.4408,353
14.4427,353
14.4446,351
14.4469,350
14.45,349
14.4515,351
14.4537,352
14.4549,351
14.4568,349
14.46,346
14.462,344
14.4639,343
14.4654,343
14.4666,345
14.4697,348
14.4704,351
14.4741,353
14.476,353
14.4777,352
14.4796,348
14.4818,345
14.483,344
14.4855,345
14.4866,347
14.4901,348
14.492,349
14.4933,349
14.4959,347
14.4971,345
14.4997,345
14.501,345
14.503,348
14.5066,350
14.5086,350
14.5096,350
14.5119,348
14.5138,347
14.5153,346
14.5176,347
14.5188,350
14.5207,352
14.5243,354
14.5257,355
14.5267,355
14.53,357
14.531,359
14.5327,363
14.5346,369
14.5381,373
14.5397,375
14.5418,372
14.5429,367
14.5452,360
14.5471,353
14.5489,348
14.5507,347
14.5526,348
14.5561,350
14.5578,351
14.559,352
14.5611,352
14.564,352
14.5659,352
14.5671,353
14.5689,355
14.5719,355
14.5742,354
14.5757,353
14.5777,351
14.5787,349
14.5806,346
14.5823,345
14.5861,346
14.5882,347
14.5898,348
14.591,347
14.5928,342
14.5947,339
14.598,337
14.5999,337
14.6018,342
14.6036,345
14.606,348
14.6072,348
14.6117,345
14.6117,342
14.6132,339
14.6143,339
14.6179,340
14.6202,342
14.6218,343
14.623,343
14.6258,342
14.6271,343
14.63,345
14.6323,351
14.6338,359
14.635,373
14.637,391
14.6393,411
14.6427,430
14.6427,448
14.6455,464
14.6478,474
14.649,476
14.6509,467
14.6528,442
14.655,407
14.6575,374
14.6592,344
14.6616,323
14.6626,314
14.6659,311
14.6679,303
14.6704,283
14.672,262
14.6732,248
14.675,246
14.6767,253
14.6787,269
14.6805,290
14.684,314
14.6859,335
14.6882,351
14.6898,359
14.691,360
14.6928,356
14.6947,351
14.6964,346
14.7,342
14.7019,342
14.7038,342
14.7056,344
14.7076,346
14.7099,346
14.7114,346
14.7126,345
14.7145,344
14.7181,345
14.7194,347
14.7212,350
14.7231,352
14.7264,352
14.7271,351
14.7304,349
14.7318,348
14.733,348
14.7352,349
14.7386,352
14.7398,353
14.7421,353
14.7431,352
14.7456,350
14.7468,349
14.7488,349
14.7506,351
14.7524,354
14.756,357
14.7582,358
14.7597,356
14.7608,354
14.7627,352
14.7646,352
14.768,354
14.7699,356
14.7717,358
14.7729,360
14.7748,359
14.7769,356
14.7798,352
14.782,350
14.7838,351
14.785,354
14.7869,359
14.7889,363
14.7926,365
14.7926,364
14.7952,361
14.7964,358
14.8001,357
14.802,360
14.8043,363
14.8059,366
14.8071,367
14.809,367
14.811,365
14.814,363
14.8162,363
14.8174,365
14.8194,369
14.8221,372
14.8236,373
14.8273,372
14.8273,370
14.8291,369
14.831,368
14.8329,370
14.8352,374
14.8385,379
14.84,382
14.8418,384
14.8428,384
14.8443,382
14.8461,381
14.8497,381
14.8516,385
14.854,389
14.8558,392
14.8578,392
14.8598,391
14.8615,389
14.8627,388
14.8645,388
14.8677,391
14.8701,395
14.8718,398
14.8729,400
14.8762,400
14.8778,398
14.8789,397
14.8807,397
14.8824,397
14.8861,400
14.888,402
14.89,402
14.8915,400
14.8932,396
14.8951,391
14.8969,386
14.8988,384
14.9007,384
14.9025,384
14.9042,383
14.9075,380
14.9095,376
14.9113,368
14.9136,361
14.9147,355
14.9167,351
14.9185,348
14.9222,346
14.9238,342
14.9255,337
14.9276,331
14.9288,326
14.9307,321
14.9326,320
14.936,321
14.9379,324
14.94,326
14.9412,328
14.9436,326
14.945,323
14.9479,318
14.9497,317
14.952,318
14.9539,321
14.9557,322
14.9573,323
14.9584,321
14.9616,318
14.9634,316
14.9658,317
14.9668,318
14.9691,321
14.9719,323
14.9738,324
14.9757,322
14.9777,318
14.9789,315
14.9808,312
14.9826,313
14.985,317
14.9875,321
14.9896,325
14.9908,328
14.9928,329
14.9947,328
14.9966,326
14.9999,326
15.0017,327
15.0029,329
15.0048,330
15.0065,329
15.0084,327
15.0101,325
15.0139,323
15.0162,323
15.0178,326
15.019,329
15.0209,332
15.0232,333
15.026,332
15.028,328
15.0299,325
15.0317,325
15.0336,326
15.0358,330
15.037,334
15.0389,337
15.0408,337
15.0431,334
15.046,331
15.0478,329
15.0501,329
15.0519,331
15.0541,334
15.0557,337
15.0568,338
15.0588,336
15.062,334
15.0639,332
15.0655,332
15.0676,334
15.0688,337
15.0707,339
15.0742,340
15.076,338
15.0775,335
15.0795,333
15.0819,331
15.083,333
15.0851,335
15.0873,337
15.0905,339
15.092,338
15.093,336
15.0953,333
15.0972,331
15.0991,331
15.1009,333
15.1028,337
15.1047,340
15.1079,341
15.1091,340
15.1117,338
15.1125,336
15.1145,336
15.1181,337
15.1202,339
15.1214,340
15.1237,340
15.1249,338
15.127,334
15.13,331
15.1322,330
15.1337,331
15.1349,334
15.1371,338
15.14,340
15.1423,339
15.1433,336
15.1448,333
15.1467,331
15.1485,331
15.1503,334
15.1543,337
15.1555,340
15.158,340
15.1608,339
15.1608,337
15.1626,335
15.1644,335
15.1681,336
15.1697,339
15.1708,342
15.1743,344
15.176,347
15.1775,348
15.1787,348
15.1806,349
15.1846,351
15.1861,356
15.1877,360
15.1889,361
15.1922,360
15.1932,355
15.1958,349
15.197,343
15.1989,339
15.2009,337
15.2028,339
15.2047,340
15.2071,340
15.2082,338
15.2116,336
15.2134,333
15.2153,333
15.2173,335
15.2197,338
15.2209,342
15.2239,344
15.2256,343
15.2271,341
15.2283,339
15.2319,336
15.2342,336
15.2358,338
15.2369,340
15.2394,341
15.2406,340
15.2424,336
15.2441,332
15.2478,329
15.2501,330
15.2517,333
15.253,335
15.2553,339
15.2565,339
15.2583,337
15.2618,335
15.2636,332
15.2659,332
15.2671,334
15.2691,337
15.2711,340
15.2733,340
15.2744,338
15.2776,335
15.2794,334
15.2817,337
15.2833,343
15.2867,354
15.2867,369
15.2897,387
15.2909,404
15.2927,421
15.2945,438
15.2981,454
15.3,466
15.3023,471
15.3039,462
15.3051,437
15.3078,403
15.31,370
15.3118,343
15.3136,326
15.3155,322
15.3175,322
15.32,313
15.3217,289
15.3234,261
15.3257,244
15.3272,240
15.3291,249
15.3309,268
15.3331,292
15.3358,318
15.3369,339
15.3388,354
15.3405,359
15.3443,358
15.3454,353
15.3473,349
15.3498,346
15.3512,345
15.3523,346
15.3561,346
15.3578,345
15.3603,344
15.3614,341
15.3634,339
15.3653,341
15.3678,344
15.369,348
15.3709,351
15.3735,354
15.3762,353
15.3778,351
15.379,349
15.3809,348
15.3831,350
15.3858,353
15.3881,355
15.3893,356
15.3912,356
15.3929,353
15.3949,351
15.3967,350
15.3989,352
15.402,355
15.4039,358
15.4057,361
15.4069,360
15.4088,359
15.4121,356
15.414,354
15.4155,354
15.4174,355
15.4199,359
15.4211,363
15.4233,365
15.4261,365
15.4279,364
15.4298,362
15.4318,361
15.433,361
15.4349,364
15.4376,367
15.4388,369
15.4407,370
15.4439,369
15.4459,368
15.4469,367
15.4488,368
15.4506,371
15.4542,374
15.4561,377
15.458,377
15.4597,375
15.4615,373
15.4632,371
15.4655,370
15.4676,372
15.4688,375
15.4707,378
15.4738,380
15.4758,380
15.478,378
15.479,376
15.4807,376
15.4824,377
15.4841,380
15.4878,385
15.4902,387
15.4919,387
15.493,387
15.4961,385
15.4977,384
15.4989,385
15.5008,387
15.5027,391
15.5046,394
15.5082,397
15.5095,397
15.5117,396
15.5129,395
15.5149,396
15.5168,399
15.5187,403
15.5206,407
15.524,408
15.5253,408
15.5275,407
15.5287,406
15.5323,406
15.5323,407
15.5361,409
15.538,411
15.5398,411
15.5418,410
15.5436,405
15.5457,401
15.5468,397
15.549,395
15.5521,395
15.554,396
15.5564,393
15.5576,390
15.5601,384
15.5616,377
15.5628,370
15.5647,364
15.5664,361
15.5683,358
15.5721,356
15.5734,353
15.5752,348
15.5775,342
15.5787,336
15.5806,332
15.5823,331
15.5864,332
15.5879,333
15.5889,333
15.5909,332
15.5928,328
15.5945,324
15.5982,321
15.6,320
15.6022,322
15.6034,324
15.6051,326
15.607,326
15.6089,324
15.6111,322
15.6123,320
15.6159,319
15.6182,321
15.6194,323
15.6212,326
15.623,328
15.6248,327
15.6267,324
15.6285,322
15.632,320
15.6342,322
15.6359,326
15.6371,329
15.6389,331
15.6408,332
15.6427,330
15.6446,328
15.6479,327
15.6498,328
15.6521,330
15.6538,334
15.655,337
15.6569,338
15.6588,336
15.6619,334
15.6638,331
15.6656,332
15.6676,334
15.6697,337
15.672,340
15.6732,342
15.6763,340
15.6781,338
15.6798,337
15.681,336
15.6832,337
15.6854,341
15.6873,343
15.6895,346
15.6915,345
15.6936,342
15.6958,339
15.6977,337
15.6992,337
15.7011,339
15.7028,341
15.7046,344
15.7063,344
15.7099,342
15.7114,340
15.7136,338
15.7147,338
15.7167,339
15.7199,342
15.7218,345
15.723,346
15.7253,344
15.728,341
15.7297,339
15.7311,338
15.7343,339
15.7359,341
15.7376,344
15.7387,346
15.7409,346
15.7433,343
15.7455,341
15.7472,339
15.7481,339
15.7516,341
15.7538,345
15.7549,347
15.7568,347
15.76,345
15.7619,342
15.7636,339
15.7647,339
15.7666,340
15.7685,343
15.7702,346
15.772,346
15.7754,345
15.7764,343
15.779,341
15.78,340
15.7835,341
15.7849,344
15.787,347
15.7897,349
15.7914,349
15.7929,346
15.7951,343
15.7961,341
15.7995,341
15.8017,343
15.8028,346
15.8047,348
15.8067,349
15.8086,347
15.8119,345
15.8137,344
15.8157,344
15.8181,347
15.8198,350
15.821,352
15.823,352
15.8268,350
15.8268,346
15.8299,343
15.8315,342
15.8327,346
15.8346,351
15.8365,358
15.8384,363
15.8403,366
15.8435,365
15.8457,363
15.8468,361
15.8487,360
15.8505,360
15.8523,360
15.856,359
15.8572,356
15.8608,351
15.8612,347
15.8624,344
15.8661,343
15.8683,345
15.8695,349
15.8718,352
15.873,353
15.8762,352
15.8783,349
15.8797,347
15.8809,345
15.8827,346
15.8846,349
15.8867,351
15.8899,352
15.8911,350
15.8927,347
15.8956,343
15.8975,340
15.8987,339
15.9006,340
15.9041,343
15.906,345
15.9079,345
15.9097,343
15.9118,340
15.913,338
15.9149,337
15.9171,339
15.9183,343
15.9219,345
15.9238,346
15.9257,345
15.9269,342
15.9299,340
15.9321,339
15.9336,340
15.9348,344
15.9367,349
15.9403,354
15.9403,359
15.9438,363
15.9457,371
15.9475,384
15.9495,402
15.9518,422
15.953,442
15.9549,462
15.9573,474
15.9601,476
15.9622,465
15.9638,439
15.9655,401
15.968,365
15.9698,337
15.9717,318
15.973,310
15.9763,310
15.9778,306
15.9798,290
15.981,265
15.9829,248
15.9848,245
15.9867,257
15.99,277
15.9919,300
15.9937,322
15.9957,339
15.9973,352
15.9984,360
16.0002,364
16.0037,366
16.0059,365
16.007,363
16.0089,359
16.0109,354
16.0136,351
16.016,350
16.0171,352
16.019,355
16.0213,358
16.0243,359
16.026,358
16.0276,355
16.0287,353
16.0305,352
16.0341,353
16.0359,355
16.0378,358
16.0401,361
16.0416,361
16.0428,359
16.0447,356
16.0465,355
16.0484,356
16.0524,358
16.0535,362
16.0554,364
16.0578,364
16.0598,363
16.0609,361
16.0632,359
16.0663,359
16.0675,361
16.0694,365
16.0716,368
16.0728,369
16.0747,368
16.0765,366
16.0789,363
16.0808,363
16.0827,364
16.0845,367
16.0879,370
16.0898,372
16.091,372
16.0932,370
16.0957,368
16.0968,367
16.0988,368
16.1007,371
16.1025,374
16.1063,376
16.1066,377
16.1093,376
16.1109,373
16.1126,372
16.1144,371
16.118,373
16.1198,377
16.1217,379
16.1233,381
16.1257,381
16.1267,378
16.1287,377
16.1304,377
16.134,379
16.1362,382
16.1379,385
16.1389,387
16.1408,388
16.1426,386
16.1445,385
16.1465,384
16.1483,385
16.152,389
16.1538,392
16.1557,395
16.1567,396
16.1585,396
16.1602,394
16.1639,393
16.1658,394
16.168,397
16.1698,401
16.171,404
16.173,406
16.176,406
16.177,405
16.1799,404
16.1818,405
16.1841,407
16.1853,410
16.1879,414
16.1891,416
16.1914,416
16.1939,414
16.1961,411
16.1978,410
16.199,409
16.2012,411
16.2025,413
16.2062,413
16.2078,412
16.209,409
16.2114,405
16.2126,399
16.2144,395
16.2176,392
16.2195,391
16.2206,387
16.2222,382
16.226,376
16.2277,368
16.2289,361
16.2308,355
16.2336,352
16.2348,351
16.2368,351
16.24,350
16.2419,347
16.2437,341
16.2458,336
16.247,333
16.2493,332
16.2505,334
16.2543,336
16.2543,337
16.2562,336
16.2598,333
16.2622,330
16.2634,329
16.2653,328
16.2671,329
16.2691,332
16.2711,334
16.2731,335
16.2763,335
16.2778,332
16.279,329
16.2812,328
16.2824,328
16.2861,331
16.2884,334
16.2896,336
16.2919,335
16.2929,333
16.2957,331
16.2972,329
16.3,330
16.3019,332
16.3039,336
16.3058,339
16.3086,339
16.31,337
16.3117,335
16.3136,333
16.3155,333
16.3176,336
16.319,339
16.3209,344
16.3226,345
16.326,344
16.3275,342
16.3298,339
16.331,338
16.3328,339
16.3347,343
16.338,346
16.3399,347
16.3417,347
16.3434,344
16.3458,342
16.3477,341
16.3489,341
16.3508,344
16.3527,347
16.3547,349
16.3566,349
16.3601,347
16.3616,344
16.3637,342
16.3649,342
16.3676,344
16.3703,346
16.3723,349
16.3738,349
16.375,347
16.3769,344
16.3797,341
16.3816,341
16.3834,342
16.3856,345
16.3874,349
16.3896,350
16.3909,350
16.3928,347
16.3959,344
16.3971,342
16.3989,342
16.4009,344
16.4028,347
16.4046,349
16.4082,350
16.4108,348
16.4113,345
16.4136,342
16.4149,342
16.4171,344
16.42,346
16.4219,349
16.4245,350
16.4256,350
16.4271,347
16.4289,345
16.4311,344
16.4341,345
16.4353,348
16.4376,350
16.4388,351
16.441,351
16.4438,349
16.4457,347
16.4476,346
16.4498,346
16.451,348
16.4529,351
16.455,352
16.458,351
16.4597,349
16.461,346
16.4637,344
16.4656,343
16.4675,345
16.4699,348
16.4711,351
16.4731,352
16.4756,351
16.4776,350
16.4788,347
16.4807,346
16.4824,347
16.4862,350
16.4878,352
16.4897,352
16.4921,351
16.4931,347
16.4956,345
16.4979,346
16.4991,350
16.5018,357
16.5029,364
16.5057,370
16.5069,372
16.5089,371
16.5111,367
16.514,364
16.5163,361
16.5175,359
16.5197,358
16.5215,357
16.5227,353
16.5262,349
16.527,345
16.5302,342
16.5317,341
16.5329,342
16.5348,346
16.537,349
16.5406,350
16.5418,349
16.5436,347
16.546,344
16.5472,343
16.5491,343
16.5509,345
16.5528,347
16.5548,346
16.5567,343
16.5601,338
16.5616,333
16.5638,329
16.565,328
16.5669,330
16.5688,333
16.5707,335
16.5741,337
16.576,337
16.577,334
16.58,332
16.5819,331
16.5835,333
16.5854,335
16.5874,338
16.5896,340
16.5908,340
16.5927,337
16.5946,335
16.5964,334
16.6001,335
16.6019,340
16.6028,346
16.606,352
16.6071,359
16.609,367
16.6106,379
16.6126,394
16.6143,413
16.6184,433
16.6196,454
16.6216,468
16.6239,473
16.6251,465
16.627,440
16.629,402
16.6309,365
16.6328,336
16.6351,318
16.6363,311
16.6403,311
16.6419,309
16.6429,291
16.6452,262
16.647,240
16.6489,234
16.6508,244
16.6543,266
16.6543,293
16.6579,317
16.6597,337
16.6617,350
16.6629,355
16.6648,357
16.6671,359
16.6702,359
16.6702,359
16.6739,357
16.6758,353
16.6775,348
16.6797,345
16.6809,345
16.6831,346
16.686,350
16.6882,354
16.6897,355
16.6909,355
16.6928,353
16.6948,350
16.697,349
16.6996,350
16.7017,353
16.7029,356
16.7047,359
16.7066,359
16.7084,359
16.712,356
16.7139,355
16.7156,356
16.7176,357
16.7195,360
16.7214,362
16.7238,363
16.7249,362
16.7266,360
16.7286,359
16.7308,359
16.7336,361
16.7356,364
16.7366,368
16.7384,369
16.7419,368
16.7437,367
16.7453,366
16.7471,365
16.7503,367
16.7518,370
16.753,374
16.755,376
16.7576,376
16.7588,374
16.762,372
16.7636,371
16.7654,372
16.7677,375
16.769,378
16.7708,381
16.7727,382
16.7746,380
16.7779,379
16.7794,377
16.781,377
16.7826,379
16.7844,383
16.7881,386
16.7899,388
16.7921,387
16.7941,384
16.7957,383
16.7968,382
16.7987,384
16.8005,388
16.8042,392
16.8061,396
16.8079,396
16.8097,394
16.8118,392
16.813,390
16.8148,391
16.8174,394
16.8206,398
16.8221,403
16.8242,405
16.8257,406
16.8276,406
16.8288,405
16.8307,406
16.8339,410
16.8359,415
16.8378,419
16.84,420
16.8417,420
16.8429,418
16.8452,416
16.8483,415
16.8498,416
16.8522,420
16.8537,423
16.8549,425
16.8572,426
16.8601,423
16.8616,420
16.8638,417
16.865,415
16.867,415
16.8692,415
16.8705,415
16.873,413
16.876,409
16.876,404
16.8783,399
16.8819,395
16.8838,392
16.886,390
16.8876,389
16.8887,385
16.8905,379
16.894,372
16.8954,364
16.8972,357
16.899,352
16.9009,350
16.9031,348
16.9059,347
16.9074,345
16.9097,340
16.9107,337
16.9127,333
16.9158,333
16.9174,335
16.9194,339
16.9218,341
16.9229,340
16.9248,337
16.9278,332
16.9301,329
16.9316,327
16.9328,328
16.9347,330
16.9371,333
16.9401,335
16.942,335
16.9439,333
16.9452,331
16.947,329
16.9489,329
16.9508,332
16.9533,335
16.9563,337
16.9563,338
16.9598,336
16.9615,334
16.9637,333
16.965,333
16.9677,336
16.9698,339
16.9724,341
16.9746,341
16.9758,340
16.9777,338
16.979,337
16.9809,338
16.9832,341
16.9848,345
16.9878,349
16.9902,350
16.9917,349
16.9928,346
16.995,342
16.9976,339
16.9995,339
17.0016,342
17.0037,346
17.0049,348
17.0068,348
17.0087,347
17.0103,345
17.0121,344
17.0161,344
17.0171,346
17.0196,350
17.0207,352
17.0225,353
17.026,351
17.0276,347
17.0294,343
17.0314,342
17.0331,342
17.0349,345
17.0373,348
17.04,350
17.0419,349
17.0437,347
17.0456,345
17.0472,344
17.0482,345
17.0499,348
17.0539,352
17.0551,353
17.057,353
17.0589,350
17.0606,345
17.063,342
17.0661,341
17.0678,342
17.0691,345
17.071,348
17.0729,349
17.0753,349
17.0764,347
17.0797,346
17.0809,345
17.0828,346
17.0846,348
17.0863,350
17.09,351
17.0918,350
17.0936,348
17.0955,346
17.0967,345
17.0984,347
17.102,349
17.1039,353
17.1059,354
17.1076,353
17.1091,351
17.1101,348
17.1138,345
17.1162,344
17.1179,346
17.1191,348
17.121,350
17.123,351
17.1256,349
17.1268,346
17.1287,343
17.1305,341
17.134,343
17.1359,347
17.1378,352
17.1401,356
17.1417,359
17.1428,358
17.1448,356
17.1472,355
17.1483,355
17.1521,355
17.1538,356
17.155,356
17.1579,354
17.1592,353
17.1617,351
17.1631,351
17.1649,355
17.1669,361
17.1688,369
17.1718,375
17.1723,380
17.176,379
17.1768,375
17.1795,371
17.1818,366
17.183,362
17.185,361
17.1868,360
17.1892,359
17.1921,357
17.1939,353
17.1957,351
17.1976,350
17.1998,350
17.201,352
17.2029,355
17.2052,357
17.2063,355
17.2098,353
17.2115,349
17.2138,346
17.215,346
17.2172,347
17.2206,350
17.2216,351
17.2228,351
17.2262,348
17.2267,344
17.2297,341
17.2316,341
17.2339,342
17.2357,345
17.2373,348
17.2403,349
17.2418,348
17.243,345
17.2457,342
17.2469,340
17.2488,341
17.2507,344
17.2542,348
17.2561,351
17.2561,351
17.2597,348
17.2614,345
17.2638,343
17.265,344
17.2678,347
17.2693,355
17.2704,366
17.2741,379
17.276,395
17.2774,413
17.2793,431
17.2811,455
17.2836,480
17.2848,498
17.2867,506
17.2887,496
17.2904,469
17.2923,433
17.2963,400
17.2975,372
17.2998,354
17.3011,346
17.303,339
17.3049,320
17.3069,287
17.3093,254
17.3118,234
17.3136,232
17.3155,244
17.3178,267
17.3191,296
17.3211,323
17.3231,342
17.325,353
17.3269,356
17.3289,355
17.3311,354
17.3343,354
17.3358,354
17.337,354
17.3389,352
17.3407,349
17.3425,346
17.3443,343
17.3479,342
17.35,343
17.3517,347
17.3529,352
17.3548,356
17.357,357
17.3599,356
17.3618,353
17.3634,351
17.3655,350
17.3665,353
17.3682,357
17.3717,360
17.3739,362
17.3751,362
17.3767,360
17.3782,358
17.3818,358
17.3836,360
17.386,362
17.3879,366
17.3892,368
17.3912,368
17.3941,365
17.3955,363
17.3977,362
17.3989,364
17.4008,367
17.4025,370
17.4043,373
17.4079,373
17.4101,370
17.4115,367
17.4126,365
17.4143,364
17.4181,367
17.4198,370
17.4214,373
17.4242,375
17.4264,375
17.4275,372
17.4294,369
17.4316,369
17.4329,369
17.4347,374
17.4366,379
17.44,382
17.442,383
17.4439,380
17.4462,377
17.4477,374
17.4489,374
17.4508,376
17.4527,379
17.456,381
17.4579,383
17.4612,384
17.4612,384
17.4631,383
17.465,383
17.4671,385
17.4696,387
17.4716,390
17.4728,391
17.4748,390
17.4766,388
17.4783,386
17.4818,386
17.4841,388
17.4857,392
17.4869,397
17.4888,401
17.4912,403
17.4924,402
17.4942,401
17.498,400
17.4999,401
17.5017,404
17.504,408
17.5059,412
17.508,413
17.5101,413
17.5118,411
17.513,409
17.5149,410
17.5168,412
17.5187,415
17.5226,418
17.5237,418
17.526,415
17.5275,410
17.5287,405
17.5305,402
17.5342,401
17.536,403
17.5379,402
17.5398,399
17.542,394
17.543,387
17.5457,380
17.5469,374
17.5488,371
17.5507,369
17.5525,369
17.5559,369
17.558,366
17.5598,361
17.5615,353
17.5627,346
17.5646,341
17.5678,339
17.5697,340
17.571,339
17.573,339
17.5749,336
17.5768,333
17.5787,329
17.5804,326
17.5839,325
17.5858,326
17.588,326
17.5896,327
17.5908,326
17.593,326
17.5962,326
17.5973,327
17.5996,328
17.6009,329
17.604,330
17.6059,330
17.6078,329
17.6097,326
17.6116,323
17.6135,321
17.6154,322
17.6174,324
17.6196,327
17.6208,329
17.6227,331
17.6246,332
17.628,331
17.6296,331
17.6308,331
17.6333,332
17.6362,334
17.6362,335
17.64,336
17.6422,335
17.6432,332
17.6457,330
17.6468,329
17.6491,331
17.6523,335
17.6538,338
17.655,340
17.6575,339
17.6587,336
17.661,333
17.664,332
17.6646,333
17.6675,335
17.6697,336
17.6709,337
17.6728,335
17.6748,332
17.678,331
17.6799,333
17.6806,336
17.6833,341
17.685,347
17.6871,349
17.69,349
17.6919,347
17.6936,341
17.6953,335
17.6969,330
17.6999,329
17.7013,331
17.7038,334
17.7055,338
17.7074,342
17.71,344
17.7118,345
17.713,346
17.7147,347
17.7178,349
17.7195,351
17.7217,351
17.723,350
17.7249,346
17.7271,343
17.7294,341
17.7316,341
17.7329,344
17.7348,347
17.7367,350
17.7386,351
17.7405,349
17.7437,346
17.7456,344
17.7468,344
17.7487,345
17.7505,347
17.7541,349
17.7559,349
17.7578,347
17.7595,344
17.7605,343
17.764,343
17.7662,345
17.7677,347
17.7689,349
17.7712,349
17.7745,347
17.7756,343
17.7773,339
17.7793,336
17.781,336
17.7829,339
17.7848,342
17.7866,346
17.7885,348
17.7919,349
17.7936,348
17.7957,347
17.7969,345
17.7988,346
17.8007,347
17.8026,349
17.8061,351
17.807,351
17.8098,351
17.8117,351
17.8129,350
17.8148,350
17.8167,351
17.82,351
17.8219,351
17.8237,350
17.8255,351
17.8281,350
17.8296,353
17.8308,355
17.8327,360
17.8345,365
17.8377,370
17.8398,369
17.841,365
17.8429,357
17.8451,349
17.8463,341
17.8501,336
17.8519,336
17.8542,340
17.856,346
17.8577,350
17.8589,351
17.8611,349
17.8638,346
17.866,342
17.8672,342
17.8691,343
17.8707,345
17.8726,345
17.8746,344
17.8777,342
17.8796,340
17.8815,339
17.8837,339
17.8856,341
17.8868,342
17.8888,342
17.8907,338
17.8925,332
17.8944,329
17.8962,329
17.8998,333
17.9016,339
17.9035,344
17.9058,346
17.9071,345
17.9091,342
17.9111,339
17.9131,336
17.915,336
17.9176,339
17.9188,343
17.9207,346
17.9226,349
17.9244,349
17.9275,347
17.9294,347
17.9317,352
17.9337,364
17.9354,381
17.9365,403
17.9384,426
17.9403,448
17.9421,468
17.9457,482
17.9476,486
17.9499,476
17.9511,450
17.9536,415
17.9546,381
17.9579,351
17.9597,331
17.9616,322
17.9637,315
17.9653,301
17.9684,276
17.9699,251
17.9722,236
17.9731,236
17.975,247
17.9774,265
17.9793,288
17.9813,313
17.9837,335
17.9852,352
17.9883,360
17.9883,362
17.9915,358
17.9938,352
17.9949,346
17.9966,343
17.9984,344
18.0019,346
18.0041,347
18.0057,348
18.0067,345
18.0086,342
18.0104,340
18.014,340
18.0159,344
18.0178,348
18.0196,352
18.0219,353
18.0229,352
18.0248,349
18.0269,346
18.0289,345
18.0309,346
18.0329,351
18.0349,355
18.0369,358
18.0389,359
18.041,357
18.043,353
18.045,350
18.047,350
18.049,351
18.051,355
18.0528,357
18.0548,359
18.0568,359
18.0588,356
18.0608,354
18.0628,353
18.0648,355
18.0668,358
18.0686,363
18.0706,366
18.0726,367
18.0746,367
18.0766,365
18.0786,363
18.0806,363
18.0821,366
18.0841,370
18.0861,374
18.0882,375
18.0902,374
18.0922,371
18.0942,367
18.0942,365
18.0994,366
18.1007,368
18.1023,372
18.1054,374
18.107,374
18.1087,372
18.1111,370
18.1131,369
18.1151,370
18.1172,373
18.1192,377
18.1212,379
18.1232,377
18.1252,375
18.1262,373
18.1282,374
18.1302,377
18.1322,383
18.1342,388
18.1362,392
18.1393,393
18.1413,391
18.1433,387
18.1453,384
18.1473,383
18.1494,384
18.1514,388
18.1534,392
18.1552,394
18.1572,394
18.1592,393
18.1613,391
18.1613,391
18.164,393
18.166,397
18.168,401
18.1711,405
18.1731,406
18.1751,404
18.1771,402
18.1791,400
18.1812,400
18.1822,401
18.1842,402
18.1862,404
18.1882,404
18.1882,401
18.1882,396
18.1882,391
18.1882,387
18.1882,386
18.1882,387
18.2023,386
18.2023,384
18.2023,379
18.2085,372
18.2105,364
18.2125,358
18.2145,353
18.2166,351
18.2183,349
18.2203,347
18.2224,343
18.2251,338
18.2271,332
18.2292,327
18.2292,324
18.2292,324
18.2353,325
18.2353,326
18.2353,326
18.2353,324
18.2353,321
18.2353,317
18.2353,316
18.2353,316
18.25,319
18.25,322
18.25,323
18.25,322
18.25,320
18.25,317
18.25,315
18.25,315
18.2672,318
18.2692,321
18.2712,323
18.2732,323
18.2752,321
18.2752,319
18.2792,316
18.2812,316
18.2832,318
18.2852,323
18.2872,327
18.2892,329
18.2892,329
18.2892,326
18.2892,323
18.2973,321
18.2993,320
18.2993,321
18.2993,324
18.2993,326
18.2993,326
18.3097,325
18.3106,324
18.3133,324
18.3152,325
18.3172,328
18.3192,331
18.3212,333
18.3212,331
18.3212,327
18.3212,324
18.3293,321
18.3312,321
18.3312,324
18.3312,329
18.3312,334
18.3312,337
18.3312,337
18.3312,335
18.3454,333
18.3474,332
18.3474,332
18.3474,334
18.3474,337
18.3474,339
18.3474,339
18.3474,337
18.3612,335
18.3612,333
18.3612,334
18.3612,336
18.3612,339
18.3612,341
18.3612,341
18.3612,340
18.3774,336
18.3789,332
18.3818,330
18.3835,330
18.3854,333
18.3873,336
18.3892,339
18.3892,340
18.3935,338
18.3935,336
18.3973,334
18.3973,335
18.3973,337
18.3973,339
18.3973,341
18.3973,340
18.4095,338
18.4115,335
18.4133,333
18.4133,333
18.4133,335
18.4133,338
18.4133,340
18.4133,340
18.4253,337
18.4274,334
18.4274,332
18.4274,332
18.4274,334
18.4274,338
18.4274,340
18.4274,340
18.4414,338
18.4434,335
18.4434,332
18.4434,331
18.4434,332
18.4434,335
18.4434,339
18.4434,342
18.4575,341
18.4592,339
18.4592,336
18.4592,334
18.4592,335
18.4592,337
18.4592,340
18.4592,341
18.4734,341
18.4734,340
18.4734,340
18.4734,342
18.4734,346
18.4839,352
18.4839,357
18.4839,361
18.4894,361
18.4894,358
18.4894,352
18.4894,345
18.4894,340
18.4894,337
18.4894,337
18.4894,338
18.5058,340
18.5071,340
18.5079,339
18.5108,336
18.5135,335
18.5135,336
18.5173,338
18.5198,340
18.5218,342
18.5238,343
18.5258,342
18.5276,340
18.5293,338
18.5317,336
18.5317,336
18.5317,337
18.5378,337
18.5398,337
18.5398,334
18.5398,330
18.5398,328
18.5398,326
18.5398,329
18.5398,332
18.5537,335
18.5537,337
18.5537,337
18.5537,334
18.5537,331
18.5537,330
18.5537,331
18.5537,333
18.5695,335
18.5718,337
18.5738,338
18.5758,335
18.5758,334
18.5798,335
18.5818,339
18.5844,348
18.5857,359
18.5878,374
18.5898,391
18.5918,407
18.5936,423
18.5958,441
18.5958,459
18.5958,472
18.6017,476
18.6017,466
18.6017,439
18.6017,403
18.6017,371
18.6017,345
18.6017,329
18.6017,326
18.6178,323
18.6178,310
18.6178,282
18.6178,256
18.6178,240
18.6178,239
18.6178,251
18.6178,272
18.6337,297
18.6351,320
18.6378,338
18.6398,348
18.6418,351
18.6418,348
18.6418,344
18.6418,340
18.6496,339
18.6496,340
18.6496,342
18.6496,344
18.6496,344
18.6496,342
18.6496,340
18.6496,338
18.6657,338
18.6657,341
18.6698,343
18.6718,345
18.6718,346
18.6718,345
18.6718,342
18.6718,341
18.6816,341
18.6816,344
18.6846,347
18.6846,350
18.6846,351
18.6846,350
18.6936,348
18.6936,346
18.6977,346
18.6998,348
18.6998,351
18.6998,355
18.6998,357
18.6998,357
18.6998,355
18.6998,353
18.7137,351
18.7153,351
18.7178,353
18.7194,356
18.7219,359
18.7238,359
18.7258,356
18.7258,355
18.7299,353
18.7318,353
18.7318,355
18.7318,358
18.7318,361
18.7318,363
18.7318,362
18.7318,360
18.7459,358
18.7459,357
18.7459,359
18.7459,363
18.7459,366
18.7459,368
18.7459,367
18.7459,365
18.7617,363
18.7617,362
18.7617,364
18.7617,367
18.7617,371
18.7617,374
18.7617,375
18.7617,374
18.7775,373
18.7775,373
18.7775,374
18.7775,377
18.7845,382
18.7845,385
18.7845,387
18.7845,387
18.7936,385
18.7936,384
18.7936,384
18.7936,385
18.7936,389
18.7936,393
18.7936,395
18.7936,396
18.8093,395
18.8113,394
18.8113,395
18.8113,397
18.8113,401
18.8113,404
18.8113,406
18.8113,406
18.8252,406
18.8273,403
18.8293,402
18.8318,402
18.8318,404
18.8318,407
18.8318,409
18.8318,408
18.8412,406
18.8412,402
18.8412,397
18.8412,393
18.8412,392
18.8412,391
18.8412,390
18.8412,388
18.8572,385
18.8593,378
18.8593,371
18.8593,365
18.8593,360
18.8593,358
18.8593,356
18.8593,354
18.8733,351
18.8733,345
18.8733,339
18.8733,333
18.8733,330
18.8733,329
18.8845,330
18.8845,330
18.8893,329
18.8918,326
18.8918,322
18.8958,318
18.8978,317
18.8998,317
18.8998,319
18.8998,321
18.9052,323
18.9072,322
18.9093,321
18.9113,318
18.9132,317
18.9158,318
18.9158,320
18.9158,322
18.9213,324
18.9213,324
18.9213,322
18.9213,319
18.9299,317
18.9299,317
18.9299,320
18.9299,323
18.9373,325
18.9373,326
18.9373,326
18.9373,324
18.9373,322
18.9373,322
18.9373,323
18.9373,325
18.9532,328
18.9558,329
18.9578,329
18.9593,327
18.9593,325
18.9593,323
18.9593,325
18.9593,329
18.9693,332
18.9693,334
18.9738,334
18.9758,332
18.9758,329
18.9798,328
18.9818,328
18.9838,331
18.9862,333
18.9878,337
18.9878,339
18.9878,338
18.9878,335
18.9878,334
18.9878,333
18.9878,335
19.0018,338
19.0018,341
19.0018,343
19.0018,342
19.0018,340
19.0018,337
19.0018,336
19.0018,337
19.0177,340
19.0198,344
19.022,346
19.0238,346
19.0238,345
19.0238,342
19.0238,340
19.0238,340
19.0338,342
19.0347,346
19.0357,348
19.0357,348
19.0357,347
19.0437,343
19.0458,341
19.0478,340
19.0498,341
19.0518,343
19.0538,346
19.0558,348
19.0578,347
19.0597,344
19.0597,341
19.0597,339
19.0597,340
19.0597,342
19.0597,345
19.0597,347
19.0597,347
19.0758,345
19.0758,343
19.0758,341
19.0758,340
19.0758,342
19.086,346
19.086,348
19.086,348
19.0918,346
19.0918,344
19.0918,341
19.0918,340
19.0918,342
19.0918,345
19.0918,348
19.1062,349
19.1077,349
19.1091,347
19.1101,345
19.1136,344
19.1152,345
19.1169,347
19.1185,350
19.1201,351
19.1235,351
19.1248,348
19.1269,345
19.1289,342
19.1289,342
19.1289,345
19.1289,351
19.1378,358
19.1395,363
19.1409,366
19.1434,366
19.1454,365
19.1474,364
19.1494,363
19.1503,363
19.1523,362
19.1554,359
19.1554,354
19.1554,348
19.1554,343
19.1554,341
19.1554,342
19.1554,345
19.1554,349
19.1713,352
19.1713,352
19.1713,350
19.1713,348
19.1713,346
19.1713,346
19.1713,348
19.1713,350
19.1873,351
19.1873,350
19.1873,348
19.1873,344
19.1949,341
19.1949,338
19.1987,338
19.2007,340
19.2032,342
19.2032,343
