timestamp,ecg_value
0.0,556
0.0,375
0.0,211
0.0011,99
0.0011,67
0.0011,210
0.0011,468
0.0011,651
0.0011,613
0.0011,448
0.0011,278
0.0011,153
0.0011,86
0.0011,167
0.0011,401
0.0011,627
0.0011,664
0.0011,526
0.0028,353
0.0028,211
0.0028,120
0.0028,137
0.0028,323
0.0028,568
0.0028,676
0.0028,579
0.0028,409
0.0028,254
0.0028,147
0.0028,113
0.0028,242
0.0028,479
0.0028,646
0.0045,607
0.0045,448
0.0045,286
0.0045,166
0.0045,99
0.0045,169
0.0045,381
0.0045,590
0.0045,622
0.0045,490
0.0045,325
0.0045,193
0.0045,106
0.0045,119
0.0045,290
0.0062,518
0.0062,620
0.0062,530
0.0062,372
0.0062,231
0.0062,135
0.0062,105
0.0074,226
0.0074,448
0.008,608
0.008,575
0.008,431
0.008,284
0.008,178
0.008,119
0.008,183
0.009,379
0.009,573
0.009,605
0.009,485
0.0097,339
0.0097,224
0.0097,151
0.0097,167
0.0103,325
0.0103,535
0.0103,632
0.0106,553
0.0106,414
0.0106,292
0.0106,210
0.0106,187
0.0106,297
0.0106,500
0.0106,645
0.0117,617
0.0117,489
0.0117,362
0.0117,267
0.0117,215
0.0117,272
0.0117,448
0.0117,622
0.0117,648
0.0117,540
0.0117,409
0.0117,304
0.0117,236
0.0117,245
0.0134,383
0.0134,565
0.0134,646
0.0134,568
0.0134,437
0.0134,323
0.0134,243
0.0134,214
0.0134,305
0.0134,481
0.0134,605
0.015,570
0.015,447
0.015,326
0.015,239
0.0162,186
0.0166,231
0.0171,385
0.0171,537
0.0171,556
0.0171,451
0.0181,328
0.0181,235
0.0181,175
0.0189,183
0.0189,308
0.0199,480
0.0199,557
0.0199,485
0.0199,368
0.0199,268
0.0199,200
0.0199,177
0.0217,265
0.0217,431
0.0217,551
0.0217,522
0.0217,410
0.0217,302
0.0217,227
0.0217,183
0.0217,229
0.0217,376
0.0234,523
0.0234,545
0.0234,448
0.0234,337
0.0234,252
0.0234,198
0.0234,206
0.0234,323
0.0234,484
0.0252,556
0.0252,488
0.0252,377
0.0252,283
0.0252,220
0.0252,198
0.0252,279
0.0252,436
0.0252,548
0.0252,519
0.0252,413
0.0252,312
0.0252,242
0.027,201
0.027,244
0.027,384
0.027,524
0.027,545
0.027,453
0.027,350
0.027,271
0.027,219
0.027,225
0.027,336
0.027,488
0.027,556
0.027,490
0.027,384
0.0287,296
0.0287,237
0.0287,215
0.0287,291
0.0287,440
0.0287,547
0.0287,520
0.0287,418
0.0287,322
0.0287,256
0.0287,217
0.0287,256
0.0287,389
0.0287,523
0.0287,543
0.0304,454
0.0304,354
0.0304,278
0.0304,228
0.0304,233
0.0304,339
0.0304,486
0.0304,552
0.0304,489
0.0304,387
0.0322,302
0.0326,245
0.0326,222
0.0326,294
0.0326,437
0.0326,542
0.0338,515
0.0338,416
0.0338,323
0.0338,259
0.0338,220
0.0338,258
0.0355,386
0.0359,515
0.0359,534
0.0359,448
0.0359,350
0.0359,275
0.0369,225
0.0369,225
0.0369,323
0.0369,463
0.0369,526
0.0369,464
0.0369,365
0.0369,284
0.0369,231
0.0369,208
0.0369,277
0.0369,415
0.0369,516
0.0386,491
0.0386,397
0.0386,309
0.0386,250
0.0386,214
0.0386,250
0.0386,375
0.0386,503
0.0386,523
0.0386,440
0.0386,346
0.0386,277
0.0386,232
0.0386,237
0.0402,337
0.0402,476
0.0402,540
0.0402,482
0.0402,387
0.0402,309
0.0402,257
0.0402,236
0.0402,304
0.0402,439
0.0402,539
0.0402,514
0.0402,422
0.0402,335
0.0418,275
0.0418,239
0.0418,272
0.0418,391
0.0418,514
0.0418,533
0.0418,451
0.0418,360
0.0418,291
0.0418,247
0.0418,248
0.0418,344
0.0418,477
0.0418,540
0.0435,482
0.0435,388
0.0435,309
0.0435,255
0.0435,227
0.0435,283
0.0435,404
0.0435,488
0.0435,448
0.0435,334
0.0435,225
0.0435,136
0.0435,68
0.0435,70
0.0452,163
0.0452,269
0.0452,284
0.0452,210
0.0452,136
0.0452,93
0.0452,84
0.0452,145
0.0452,305
0.0452,494
0.0452,592
0.0452,548
0.0452,453
0.0452,365
0.0468,296
0.0468,258
0.0468,307
0.0468,428
0.0468,521
0.0468,499
0.0468,410
0.0468,330
0.0468,276
0.0468,243
0.0468,275
0.0468,391
0.0468,511
0.0468,532
0.0485,454
0.0485,367
0.0485,301
0.0485,258
0.0485,257
0.0485,349
0.0494,477
0.0494,538
0.0494,482
0.0494,391
0.0499,317
0.0499,268
0.0499,246
0.0499,306
0.0499,433
0.0499,529
0.0499,507
0.0499,418
0.0499,336
0.0499,280
0.0499,245
0.0499,274
0.0499,387
0.0516,506
0.0516,526
0.0516,448
0.0516,361
0.0516,294
0.0516,251
0.0516,250
0.0516,339
0.0516,467
0.0516,530
0.0516,474
0.0516,384
0.0516,309
0.0533,260
0.0533,237
0.0533,296
0.0533,421
0.0533,516
0.0533,496
0.0533,407
0.0533,324
0.0533,267
0.0533,231
0.0533,259
0.0533,370
0.0533,487
0.0549,508
0.0549,430
0.0549,342
0.0549,277
0.0549,233
0.0549,231
0.0549,318
0.0549,445
0.0549,508
0.0549,452
0.0549,361
0.0549,287
0.0549,237
0.0565,214
0.0565,270
0.0565,394
0.0565,489
0.0565,468
0.0565,380
0.0565,297
0.0565,241
0.0565,205
0.0565,231
0.0565,339
0.0565,457
0.0565,478
0.0582,401
0.0582,312
0.0582,249
0.0582,206
0.0582,203
0.0582,287
0.0582,412
0.0582,475
0.0582,420
0.0582,328
0.0582,256
0.0582,207
0.0582,184
0.0582,240
0.0582,362
0.0598,458
0.0598,439
0.0598,351
0.0598,269
0.0598,215
0.0598,180
0.0598,206
0.0598,314
0.0598,434
0.0598,458
0.0598,383
0.0598,297
0.0598,235
0.0615,195
0.0615,195
0.0615,283
0.0615,413
0.0615,481
0.0615,431
0.0615,344
0.0615,275
0.0615,231
0.0615,212
0.0615,272
0.0615,399
0.0615,499
0.0631,485
0.0631,401
0.0631,324
0.0631,273
0.0631,242
0.0631,271
0.0631,382
0.0631,502
0.0631,528
0.0631,454
0.0631,370
0.0631,306
0.0631,264
0.0631,262
0.0648,348
0.0648,474
0.0648,539
0.0648,487
0.0648,399
0.0648,326
0.0648,279
0.0648,256
0.0648,312
0.0648,435
0.0664,533
0.0664,517
0.0664,430
0.0664,350
0.0664,294
0.0664,258
0.0664,282
0.0664,390
0.0664,507
0.0664,532
0.0664,457
0.0681,371
0.0681,307
0.0681,265
0.0681,261
0.0681,345
0.0681,470
0.0681,536
0.0681,485
0.0681,396
0.0681,323
0.0681,276
0.0681,253
0.0681,307
0.0698,429
0.0698,526
0.0698,511
0.0698,425
0.0698,345
0.0698,289
0.0698,253
0.0698,276
0.0698,384
0.0698,501
0.0698,527
0.0698,453
0.0698,367
0.0715,303
0.0715,263
0.0715,260
0.0715,344
0.0715,470
0.0715,536
0.0715,486
0.0715,396
0.0715,324
0.0715,276
0.0715,251
0.0715,305
0.0715,426
0.0715,524
0.0731,510
0.0731,423
0.0731,344
0.0731,289
0.0737,254
0.0737,278
0.0737,384
0.0737,502
0.0737,530
0.0743,457
0.0743,372
0.0743,307
0.0743,265
0.0743,261
0.0743,343
0.0743,468
0.0743,535
0.0743,486
0.0743,397
0.0743,325
0.0743,277
0.0743,253
0.0759,306
0.0759,427
0.0759,526
0.0759,512
0.0759,428
0.0759,349
0.0759,293
0.0759,257
0.0759,278
0.0759,383
0.0759,500
0.0759,529
0.0759,456
0.0759,370
0.0775,305
0.0775,264
0.0775,258
0.0775,340
0.0775,465
0.0775,532
0.0775,483
0.0775,394
0.0775,320
0.0775,272
0.0775,247
0.0775,297
0.0775,417
0.0775,517
0.0791,505
0.0791,420
0.0791,340
0.0791,284
0.0791,248
0.0791,267
0.0791,370
0.0791,485
0.0791,512
0.0791,437
0.0791,348
0.0805,283
0.0805,240
0.0805,234
0.0805,314
0.0805,440
0.0805,509
0.0805,462
0.0805,374
0.0805,301
0.0805,254
0.0805,230
0.0805,281
0.0805,403
0.0805,504
0.0822,494
0.0822,409
0.0822,329
0.0822,275
0.0822,240
0.0822,262
0.0822,368
0.0822,488
0.0822,521
0.0822,450
0.0822,367
0.0822,303
0.0822,262
0.0839,257
0.0839,337
0.0839,462
0.0839,532
0.0839,486
0.0839,399
0.0839,326
0.0839,278
0.0839,253
0.0839,302
0.0839,422
0.0839,521
0.0839,510
0.0839,424
0.0839,343
0.0856,286
0.0856,250
0.0856,269
0.0856,373
0.0856,492
0.0856,524
0.0856,452
0.0856,366
0.0856,301
0.0856,258
0.0856,248
0.0856,321
0.0856,438
0.0856,499
0.0873,442
0.0873,339
0.0873,248
0.0873,179
0.0873,126
0.0873,143
0.0873,230
0.0873,305
0.0873,278
0.0873,182
0.0873,100
0.0873,53
0.0873,34
0.0873,80
0.0873,227
0.089,415
0.089,515
0.089,493
0.089,432
0.089,373
0.089,320
0.089,296
0.089,357
0.089,465
0.089,524
0.089,472
0.089,380
0.089,307
0.089,261
0.0906,238
0.0906,289
0.0906,412
0.0906,516
0.0906,510
0.0906,427
0.0906,347
0.0906,291
0.0906,255
0.0906,273
0.0906,376
0.0906,495
0.0906,528
0.0906,458
0.0906,371
0.0923,305
0.0923,262
0.0923,253
0.0923,329
0.0923,454
0.0923,527
0.0923,484
0.0923,396
0.0923,322
0.0923,273
0.0923,246
0.0923,292
0.0923,410
0.0941,510
0.0941,502
0.0941,416
0.0941,334
0.0941,277
0.0941,241
0.0941,258
0.0941,360
0.0941,480
0.0941,515
0.0941,444
0.0941,357
0.0941,291
0.0941,249
0.0941,240
0.0959,316
0.0959,442
0.0959,516
0.0959,471
0.0959,382
0.0959,306
0.0959,256
0.0959,228
0.0959,273
0.0959,390
0.0959,491
0.0959,485
0.0959,400
0.0959,319
0.0959,262
0.0977,225
0.0977,240
0.0977,339
0.0977,458
0.0977,494
0.0977,424
0.0977,335
0.0977,269
0.0977,225
0.0977,215
0.0977,289
0.0977,413
0.0977,487
0.0993,445
0.0993,356
0.0993,282
0.0993,232
0.0993,203
0.0993,247
0.0993,364
0.0993,466
0.0993,460
0.0993,375
0.0993,291
0.0993,235
0.0993,198
0.1011,213
0.1011,313
0.1011,435
0.1011,471
0.1011,401
0.1011,311
0.1011,246
0.1011,201
0.1011,189
0.1011,262
0.1011,386
0.1011,461
0.1011,418
0.1011,328
0.1028,255
0.1028,206
0.1028,178
0.1028,223
0.1028,338
0.1028,442
0.1028,439
0.1028,355
0.1028,274
0.1028,219
0.1028,183
0.1028,199
0.1028,299
0.1028,424
0.1046,466
0.1046,400
0.1046,315
0.1046,254
0.1046,214
0.1046,206
0.1046,283
0.1046,411
0.1046,491
0.1046,455
0.1046,371
0.1046,301
0.1046,256
0.1046,231
0.1062,279
0.1062,399
0.1062,506
0.1062,507
0.1062,426
0.1062,347
0.1062,291
0.1062,254
0.1062,268
0.1062,368
0.1062,487
0.1062,527
0.1062,460
0.1062,375
0.1062,309
0.108,266
0.108,256
0.108,329
0.108,454
0.108,532
0.108,492
0.108,405
0.108,331
0.108,282
0.108,255
0.108,299
0.108,416
0.108,521
0.108,519
0.108,436
0.108,354
0.1099,295
0.1099,257
0.1099,269
0.1099,368
0.1099,488
0.1099,529
0.1099,462
0.1099,377
0.1099,310
0.1099,266
0.1099,253
0.1099,323
0.1099,447
0.1099,525
0.1116,488
0.1116,402
0.1116,328
0.1116,279
0.1116,251
0.1116,292
0.1116,407
0.1116,510
0.1116,509
0.1116,426
0.1116,344
0.1116,287
0.1116,250
0.1116,263
0.1116,362
0.1133,483
0.1133,525
0.1133,459
0.1133,374
0.1133,308
0.1133,264
0.1133,252
0.1133,324
0.1133,449
0.1133,528
0.1133,490
0.1133,402
0.1133,326
0.1133,277
0.115,248
0.115,290
0.115,407
0.115,514
0.115,517
0.115,435
0.115,353
0.115,294
0.115,255
0.115,266
0.115,364
0.115,485
0.115,527
0.1167,462
0.1167,376
0.1167,309
0.1167,266
0.1167,252
0.1167,322
0.1167,446
0.1167,526
0.1167,489
0.1167,402
0.1167,326
0.1167,275
0.1167,245
0.1167,286
0.1185,402
0.1185,510
0.1185,513
0.1185,430
0.1185,348
0.1185,289
0.1185,251
0.1185,262
0.1185,360
0.1185,482
0.1197,525
0.1197,459
0.1197,370
0.1197,301
0.1197,256
0.1197,242
0.1197,312
0.1197,439
0.1197,521
0.1197,486
0.1197,397
0.1197,319
0.1197,266
0.1197,233
0.1213,270
0.1213,383
0.1213,490
0.1213,493
0.1213,411
0.1213,327
0.1213,268
0.1213,229
0.1213,239
0.1213,334
0.1213,459
0.1213,506
0.1213,442
0.1213,357
0.1213,290
0.1229,247
0.1229,234
0.1229,304
0.1229,430
0.1229,513
0.1229,478
0.1229,389
0.1229,313
0.1229,264
0.1229,236
0.1229,278
0.1229,397
0.1229,508
0.1229,515
0.1245,434
0.1245,350
0.1245,290
0.1245,250
0.1245,259
0.1245,355
0.1245,478
0.1245,524
0.1245,460
0.1245,372
0.1245,304
0.1245,260
0.1245,245
0.1245,315
0.1245,440
0.1261,523
0.1261,488
0.1261,400
0.1261,322
0.1261,270
0.1261,238
0.1261,276
0.1261,393
0.1261,503
0.1261,509
0.1261,427
0.1261,341
0.1261,277
0.1261,231
0.1261,230
0.1278,313
0.1278,425
0.1278,454
0.1278,368
0.1278,250
0.1278,151
0.1278,73
0.1278,28
0.1278,75
0.1278,185
0.1278,268
0.1278,245
0.1278,175
0.1278,124
0.1278,112
0.1294,141
0.1294,245
0.1294,414
0.1294,556
0.1294,576
0.1294,492
0.1294,397
0.1294,319
0.1294,264
0.1294,259
0.1294,344
0.1294,464
0.1294,512
0.1294,451
0.131,365
0.131,299
0.131,256
0.131,242
0.131,311
0.131,438
0.131,523
0.131,492
0.131,404
0.131,326
0.131,275
0.131,243
0.1326,280
0.1326,394
0.1326,504
0.1326,512
0.1326,432
0.1326,347
0.1326,286
0.1326,246
0.1343,252
0.1343,346
0.1343,470
0.1343,519
0.1343,456
0.1343,367
0.1343,296
0.1343,251
0.1343,234
0.1343,299
0.1361,424
0.1361,509
0.1361,478
0.1361,389
0.1361,311
0.1361,258
0.1361,227
0.1361,262
0.1361,376
0.1378,487
0.1378,496
0.1378,415
0.1378,329
0.1378,268
0.1378,228
0.1378,234
0.1394,326
0.1394,450
0.1394,501
0.1394,439
0.1394,350
0.1394,281
0.1394,235
0.1394,218
0.1411,283
0.1411,408
0.1411,494
0.1411,464
0.1411,375
0.1411,296
0.1411,244
0.1428,211
0.1428,247
0.1428,360
0.1428,472
0.1428,482
0.1428,401
0.1428,314
0.1428,253
0.1445,212
0.1445,217
0.1445,308
0.1445,433
0.1445,485
0.1445,423
0.1445,332
0.1445,262
0.1445,215
0.1462,197
0.1462,261
0.1462,386
0.1479,475
0.1495,445
0.1513,356
0.1547,277
0.1561,223
0.1583,191
0.1594,225
0.1612,337
0.1647,450
0.1665,461
0.1682,379
0.1699,291
0.1716,230
0.1743,189
0.1765,193
0.1782,284
0.18,409
0.1817,463
0.1841,402
0.1852,311
0.1886,243
0.1903,196
0.1926,178
0.1937,243
0.1954,369
0.1983,460
0.1996,433
0.2013,346
0.2032,269
0.205,218
0.2085,187
0.2103,223
0.2122,338
0.2141,457
0.2159,473
0.2176,397
0.2195,313
0.2213,255
0.2246,217
0.226,224
0.2279,318
0.2301,448
0.2326,507
0.2346,452
0.2357,367
0.2376,299
0.2394,256
0.2426,239
0.2444,304
0.2459,430
0.2476,521
0.2493,496
0.2527,411
0.2538,334
0.2557,281
0.2578,249
0.2607,282
0.2625,395
0.2647,508
0.2658,524
0.2676,446
0.2698,362
0.2729,299
0.2748,258
0.2768,261
0.2786,352
0.2797,476
0.2816,531
0.2848,473
0.2871,385
0.2887,315
0.2898,269
0.2916,249
0.2935,310
0.2971,433
0.2971,522
0.299,497
0.3026,410
0.3044,333
0.3066,281
0.3078,248
0.3097,279
0.3117,390
0.3141,501
0.317,517
0.317,441
0.3188,358
0.3224,296
0.3241,255
0.3259,257
0.3277,345
0.3295,466
0.3313,522
0.3331,466
0.3349,379
0.3381,310
0.3398,265
0.3418,245
0.3437,303
0.3457,424
0.348,512
0.3505,489
0.3525,404
0.3535,328
0.3565,277
0.3582,245
0.3597,274
0.3614,382
0.3632,493
0.3666,510
0.3688,435
0.3698,353
0.3717,294
0.3746,255
0.3772,256
0.379,340
0.3809,461
0.3827,517
0.3849,463
0.3865,378
0.3878,311
0.3896,267
0.3915,247
0.3952,304
0.3971,423
0.399,511
0.4006,488
0.4025,406
0.4045,332
0.4068,282
0.4079,250
0.4099,278
0.4118,383
0.414,492
0.4166,508
0.4184,434
0.4207,355
0.4219,297
0.4238,259
0.4257,260
0.4275,343
0.4294,461
0.4336,517
0.4346,463
0.4362,381
0.4385,315
0.4397,272
0.4417,252
0.4437,307
0.4456,423
0.4475,510
0.4509,488
0.4528,407
0.4546,334
0.4563,285
0.4583,253
0.4606,280
0.4622,383
0.4634,491
0.4666,508
0.468,435
0.4698,356
0.4715,297
0.4748,260
0.4767,259
0.4786,339
0.4805,455
0.4829,510
0.4839,457
0.486,373
0.4879,306
0.4898,261
0.4916,238
0.4949,289
0.4967,401
0.4988,487
0.4999,467
0.5018,387
0.5037,315
0.5056,266
0.5092,235
0.511,260
0.5128,360
0.5144,467
0.5165,485
0.5175,416
0.5211,341
0.5229,287
0.5248,251
0.5267,251
0.5291,330
0.5301,445
0.5326,502
0.5337,451
0.5355,372
0.5374,310
0.5411,271
0.5429,252
0.5452,307
0.5467,420
0.5479,507
0.55,490
0.5529,411
0.5548,341
0.5567,294
0.559,263
0.5609,287
0.5619,385
0.5637,489
0.5656,507
0.5673,439
0.5712,363
0.5724,308
0.5744,272
0.5765,270
0.578,346
0.5812,458
0.5828,512
0.5844,463
0.5856,384
0.5875,321
0.5911,279
0.5929,260
0.5941,310
0.5959,419
0.5978,505
0.5995,486
0.6015,408
0.6051,335
0.6069,282
0.6088,243
0.611,254
0.6126,335
0.6138,422
0.6161,418
0.6189,320
0.6206,215
0.6218,129
0.624,63
0.627,37
0.6287,94
0.6299,196
0.6318,258
0.6339,227
0.6368,173
0.639,149
0.6407,167
0.6417,214
0.6435,319
0.6455,462
0.6497,561
0.6507,543
0.6526,458
0.6537,375
0.6565,313
0.6581,270
0.6592,282
0.6627,370
0.6645,470
0.6657,491
0.6675,427
0.6694,358
0.6718,308
0.6746,275
0.6767,273
0.6779,347
0.6798,455
0.6816,510
0.6848,465
0.6867,389
0.6882,330
0.6905,291
0.6917,270
0.6936,315
0.6953,419
0.6991,500
0.6991,484
0.7027,411
0.7043,346
0.7061,301
0.7078,271
0.7096,290
0.7112,380
0.7146,477
0.7167,497
0.7178,431
0.7196,361
0.7213,309
0.7247,275
0.7264,270
0.7281,339
0.7299,445
0.7316,497
0.7348,453
0.7367,379
0.7386,321
0.7404,282
0.7427,261
0.7439,305
0.7458,405
0.7478,485
0.7501,470
0.7511,397
0.7548,333
0.7566,289
0.7588,260
0.76,277
0.7627,364
0.7642,460
0.7661,478
0.7685,415
0.7706,345
0.7716,296
0.7733,263
0.7762,258
0.7785,319
0.7797,406
0.7822,440
0.7834,396
0.7853,348
0.7872,331
0.7909,336
0.7928,346
0.7945,364
0.7969,369
0.7987,345
0.7999,304
0.8018,292
0.8038,322
0.8056,369
0.8075,398
0.8109,399
0.8128,367
0.8144,314
0.8168,270
0.8181,263
0.8191,302
0.8231,361
0.8247,402
0.826,408
0.8279,372
0.8307,309
0.8328,257
0.8344,243
0.8355,277
0.8373,339
0.8391,393
0.8426,410
0.8441,382
0.8463,318
0.8473,257
0.8508,229
0.8524,252
0.8543,310
0.8561,372
0.8577,403
0.8595,389
0.8623,331
0.8646,263
0.8665,222
0.8682,230
0.8707,282
0.8724,349
0.8742,393
0.8758,397
0.879,352
0.8804,283
0.8825,232
0.8839,225
0.8849,268
0.8884,336
0.89,394
0.8917,415
0.8937,388
0.8964,323
0.8981,263
0.8998,240
0.9015,269
0.9035,334
0.9064,400
0.9083,436
0.9106,426
0.9116,373
0.9135,305
0.9155,268
0.9172,279
0.9206,337
0.9224,408
0.9246,455
0.9264,460
0.9275,418
0.9294,349
0.933,295
0.933,287
0.9367,330
0.9384,399
0.9407,454
0.9426,473
0.9438,444
0.9457,378
0.9476,313
0.9508,288
0.9526,313
0.9544,377
0.9566,440
0.9578,472
0.9599,459
0.9629,401
0.9647,330
0.9659,288
0.9685,296
0.9697,351
0.9717,418
0.974,462
0.9765,465
0.9777,419
0.9796,348
0.9832,292
0.9853,283
0.9868,325
0.988,394
0.9906,450
0.9922,470
0.994,440
0.9959,373
0.9978,307
0.9995,279
1.0015,304
1.0048,368
1.007,431
1.0086,464
1.0098,453
1.0117,396
1.0137,325
1.0161,283
1.0189,291
1.0208,346
1.0239,415
1.0239,461
1.0251,465
1.0285,422
1.0303,351
1.0322,294
1.0357,283
1.0357,324
1.0389,393
1.0405,449
1.0417,469
1.0453,441
1.0483,376
1.0498,309
1.0509,281
1.0519,305
1.0544,369
1.0555,432
1.0573,466
1.0607,456
1.0628,400
1.0639,329
1.0657,285
1.0674,291
1.0691,346
1.0726,414
1.0743,460
1.0767,466
1.0778,423
1.0796,353
1.0813,296
1.0831,284
1.0865,324
1.0883,392
1.0901,448
1.0921,468
1.0932,441
1.0968,377
1.0986,310
1.1003,280
1.1024,303
1.1042,367
1.1066,431
1.1076,465
1.1094,456
1.113,401
1.1147,330
1.1165,285
1.1183,291
1.1207,344
1.1218,412
1.1237,458
1.1255,463
1.1289,421
1.1307,351
1.1324,293
1.1348,280
1.1366,319
1.1383,387
1.1407,444
1.1418,465
1.1436,439
1.1453,375
1.1488,308
1.1506,278
1.1526,300
1.1536,362
1.1553,425
1.1587,459
1.1607,449
1.1618,393
1.1636,321
1.167,276
1.1687,279
1.1705,330
1.1723,399
1.1745,446
1.1768,452
1.1774,411
1.1809,339
1.1822,280
1.1845,263
1.1856,299
1.1873,364
1.1907,419
1.1924,439
1.1946,414
1.1957,349
1.199,283
1.1998,252
1.2024,273
1.2043,335
1.2066,401
1.2078,436
1.2097,429
1.2115,376
1.2148,307
1.2165,264
1.2184,269
1.2206,321
1.2217,391
1.2236,438
1.2255,446
1.2292,407
1.2306,338
1.2324,282
1.2344,269
1.2359,308
1.2369,378
1.2404,437
1.2427,460
1.2439,437
1.2457,375
1.2476,308
1.2503,277
1.2532,298
1.255,360
1.2569,424
1.2588,459
1.2607,451
1.2621,398
1.2646,327
1.2672,280
1.2687,283
1.2711,333
1.2726,401
1.2738,448
1.2768,457
1.2781,418
1.2791,349
1.2826,290
1.2844,274
1.2862,310
1.2882,378
1.2902,436
1.2921,459
1.2944,435
1.2954,373
1.2971,303
1.3002,265
1.3025,277
1.3037,326
1.3055,380
1.309,400
1.3109,374
1.312,296
1.3138,197
1.3156,115
1.3179,83
1.3189,107
1.3224,156
1.3238,194
1.326,205
1.327,181
1.3291,135
1.3328,106
1.3344,139
1.3355,242
1.3373,372
1.3389,473
1.3423,518
1.3444,499
1.3454,429
1.3471,347
1.3506,294
1.3523,297
1.3545,347
1.3555,407
1.3573,442
1.3605,439
1.3627,392
1.3638,325
1.3657,279
1.3677,281
1.3707,331
1.3726,400
1.3745,448
1.3758,458
1.3791,421
1.3791,355
1.3827,295
1.3844,276
1.386,311
1.3878,378
1.3896,435
1.3917,458
1.395,437
1.3962,376
1.3981,308
1.3999,274
1.4018,291
1.4036,351
1.4054,416
1.4088,453
1.4107,449
1.4126,399
1.414,329
1.4157,280
1.4178,278
1.4206,327
1.4227,395
1.4238,444
1.4255,453
1.4289,417
1.4307,350
1.4318,288
1.4336,267
1.4353,299
1.437,364
1.4405,422
1.4422,447
1.4441,428
1.4458,369
1.4475,301
1.4509,263
1.4529,277
1.4544,334
1.4555,399
1.4573,435
1.4608,432
1.4626,385
1.4644,316
1.4662,266
1.4686,261
1.4701,307
1.4711,373
1.474,421
1.4756,430
1.4772,396
1.4805,330
1.4823,271
1.4842,248
1.4861,279
1.4881,343
1.4899,401
1.4916,425
1.4933,406
1.4966,347
1.4983,281
1.5002,243
1.5017,256
1.5043,312
1.5061,376
1.508,413
1.5097,409
1.5114,361
1.5131,293
1.5166,242
1.5186,237
1.5203,282
1.5221,348
1.5238,397
1.5255,407
1.5288,372
1.5306,305
1.5324,243
1.5346,219
1.5371,249
1.5383,312
1.5406,371
1.5424,397
1.5436,379
1.5472,321
1.549,255
1.5508,214
1.5527,225
1.5545,279
1.5564,342
1.5581,381
1.5603,380
1.5617,335
1.5645,269
1.5658,217
1.5675,208
1.5693,251
1.571,317
1.5743,369
1.5762,385
1.5786,359
1.5802,300
1.583,240
1.5849,213
1.5866,241
1.5878,305
1.5897,369
1.5915,401
1.5933,396
1.5971,353
1.599,292
1.599,247
1.6029,250
1.604,303
1.6059,370
1.6077,415
1.6095,428
1.6112,405
1.613,353
1.6165,296
1.6182,273
1.6206,305
1.6216,368
1.6234,420
1.6268,445
1.6284,440
1.6307,401
1.6318,341
1.6334,289
1.6354,290
1.6371,338
1.6407,396
1.6431,431
1.6446,450
1.6458,442
1.6476,400
1.6493,330
1.6511,283
1.6546,292
1.6568,333
1.6586,374
1.6597,416
1.6617,475
1.6641,518
1.6652,496
1.6687,404
1.6705,315
1.6717,261
1.6747,232
1.6761,229
1.678,298
1.6808,414
1.6825,489
1.6843,461
1.6871,389
1.6886,330
1.6901,290
1.6912,266
1.6945,299
1.6963,398
1.6986,490
1.7,490
1.701,419
1.7047,349
1.7059,301
1.7079,268
1.7101,276
1.7134,359
1.7149,464
1.7159,502
1.7186,445
1.7198,370
1.722,313
1.7231,276
1.7271,263
1.7287,322
1.7299,431
1.7332,502
1.7351,471
1.7367,396
1.7379,334
1.7398,293
1.7417,268
1.7436,301
1.7454,401
1.7491,494
1.7491,496
1.751,423
1.7542,352
1.7566,302
1.7577,270
1.7597,278
1.762,363
1.7649,470
1.7666,510
1.7676,453
1.7706,377
1.7724,320
1.7747,282
1.7762,268
1.7792,327
1.7808,437
1.7827,510
1.7846,480
1.7852,403
1.7887,338
1.7905,295
1.7928,268
1.794,300
1.7974,401
1.798,496
1.7998,499
1.8015,427
1.8034,356
1.8051,307
1.8086,273
1.81,279
1.8126,362
1.8142,469
1.8158,510
1.8182,453
1.8205,377
1.8223,318
1.8244,280
1.8254,266
1.8271,325
1.8302,435
1.8317,508
1.8338,476
1.8365,399
1.8384,333
1.8394,291
1.8411,265
1.8446,298
1.8463,400
1.8479,496
1.8491,500
1.8526,426
1.8544,353
1.8561,300
1.8578,266
1.8596,273
1.8625,358
1.8641,467
1.8665,509
1.8682,452
1.8699,376
1.8716,317
1.8733,278
1.8768,263
1.8768,320
1.879,429
1.8826,501
1.8843,467
1.8861,386
1.8878,317
1.8895,271
1.8933,242
1.8944,273
1.8961,376
1.8979,475
1.8999,480
1.901,407
1.9045,332
1.9056,281
1.9074,246
1.9106,252
1.9123,336
1.9145,448
1.9157,493
1.9187,436
1.9205,359
1.9226,300
1.9237,261
1.9259,247
1.9269,306
1.9305,418
1.9323,495
1.934,467
1.9358,389
1.9374,322
1.9408,280
1.9408,255
1.9443,289
1.9465,393
1.9476,494
1.9506,502
1.952,428
1.9538,354
1.9555,301
1.9589,266
1.9606,272
1.9629,358
1.964,470
1.9658,514
1.9676,456
1.9694,376
1.9729,314
1.9748,274
1.9765,258
1.9782,317
1.9799,431
1.9817,509
1.9848,479
1.9866,397
1.9883,329
1.9906,283
1.9917,254
1.9949,286
1.9967,391
1.9985,492
2.0009,499
2.0021,419
2.0039,334
2.0057,271
2.0075,221
2.0093,209
2.0111,270
2.0148,357
2.0165,369
2.0187,274
2.0198,159
2.0218,71
2.0239,8
2.0268,0
2.0287,46
2.031,169
2.0323,273
2.0344,282
2.0363,259
2.0386,261
2.0398,276
2.0417,288
2.0435,340
2.0454,447
2.0492,543
2.0509,541
2.053,453
2.0545,364
2.0557,299
2.0576,256
2.0595,258
2.0632,345
2.0648,463
2.0659,514
2.0685,460
2.0697,378
2.0716,315
2.0734,273
2.0775,257
2.0786,318
2.0798,435
2.0817,518
2.085,490
2.0866,406
2.0878,333
2.0897,284
2.0915,253
2.0955,286
2.0966,395
2.0999,501
2.0999,513
2.102,436
2.1038,355
2.1057,297
2.1075,259
2.1093,263
2.1134,351
2.1145,470
2.1163,521
2.1182,462
2.1202,377
2.1226,308
2.1238,263
2.1258,244
2.1281,303
2.1311,422
2.1321,507
2.1344,480
2.1356,396
2.1375,321
2.1394,271
2.1432,240
2.1447,270
2.1465,377
2.1476,485
2.1493,498
2.1512,420
2.1548,337
2.1567,278
2.1585,239
2.1605,242
2.1629,329
2.1646,451
2.1657,503
2.1678,444
2.1708,357
2.1729,287
2.1747,241
2.1762,221
2.1788,281
2.1809,402
2.1821,489
2.1843,463
2.1872,375
2.189,298
2.1909,247
2.1909,215
2.1946,247
2.1964,357
2.1988,469
2.1999,482
2.2018,402
2.2037,314
2.2057,252
2.2075,210
2.2111,212
2.2111,302
2.2148,428
2.2166,485
2.2187,426
2.2199,335
2.2218,265
2.2237,217
2.2256,197
2.2275,259
2.2312,383
2.2327,474
2.2346,447
2.2368,356
2.2381,275
2.2399,220
2.2423,187
2.2433,219
2.2468,332
2.2491,449
2.251,466
2.2525,386
2.2537,298
2.2555,236
2.2579,194
2.2607,195
2.2626,284
2.2644,410
2.2662,468
2.2685,408
2.2697,315
2.2716,244
2.2747,197
2.2768,176
2.278,240
2.2811,368
2.2818,465
2.285,443
2.2867,355
2.2884,277
2.2901,226
2.2931,194
2.2946,229
2.2966,345
2.2983,466
2.2999,487
2.3017,410
2.3035,324
2.3067,264
2.3085,225
2.3096,230
2.3114,324
2.315,457
2.3164,521
2.3184,468
2.3196,380
2.3214,307
2.325,259
2.3265,240
2.3277,303
2.3296,432
2.3328,529
2.3354,508
2.3365,422
2.3387,343
2.3399,287
2.3418,253
2.3438,282
2.3461,394
2.3487,511
2.35,529
2.3533,452
2.3548,366
2.3559,302
2.3578,261
2.3597,263
2.3615,353
2.3637,479
2.3666,539
2.3685,482
2.3696,391
2.3715,317
2.3755,269
2.3766,248
2.3785,309
2.3803,434
2.3828,528
2.3843,505
2.3861,416
2.3879,335
2.3897,280
2.3915,246
2.3952,276
2.3966,388
2.3978,505
2.4009,524
2.4025,445
2.4043,358
2.4061,292
2.4079,250
2.4098,250
2.4122,338
2.4133,465
2.4152,525
2.4169,469
2.4207,379
2.4225,306
2.4246,260
2.4258,240
2.4282,300
2.4292,425
2.4329,519
2.4347,497
2.4365,409
2.4383,328
2.4407,274
2.4426,241
2.4447,270
2.4461,381
2.4471,498
2.449,519
2.4525,442
2.4543,358
2.4562,293
2.4586,251
2.4602,251
2.4627,338
2.4646,464
2.4667,524
2.468,469
2.469,379
2.4727,307
2.4745,260
2.4769,238
2.478,297
2.4799,421
2.4815,516
2.4833,496
2.4852,409
2.487,330
2.4903,276
2.4927,243
2.4939,271
2.4958,382
2.4977,499
2.4996,521
2.5014,444
2.5032,357
2.5051,293
2.5085,251
2.5098,251
2.5116,338
2.5133,464
2.5152,526
2.5187,473
2.5205,384
2.5223,313
2.5242,266
2.5265,246
2.5277,303
2.5295,427
2.5313,523
2.533,504
2.5365,417
2.5384,337
2.5403,283
2.5425,249
2.5437,276
2.5456,386
2.5491,503
2.5508,525
2.5527,449
2.5547,362
2.5566,298
2.5575,257
2.5608,256
2.5624,342
2.5636,468
2.5654,530
2.5672,475
2.5708,386
2.5728,312
2.5746,263
2.5765,241
2.5784,297
2.5803,421
2.5821,516
2.5837,496
2.5856,406
2.5874,321
2.5897,264
2.5927,227
2.5949,254
2.5961,364
2.5979,482
2.601,505
2.6028,428
2.6047,339
2.6069,275
2.608,233
2.6098,232
2.6117,318
2.6135,448
2.6153,513
2.6171,462
2.6206,373
2.6225,301
2.6246,254
2.6258,231
2.6281,287
2.6312,412
2.6324,509
2.6347,492
2.637,406
2.6385,326
2.6397,273
2.6415,240
2.6434,269
2.6472,380
2.6472,499
2.6491,524
2.6527,448
2.6548,361
2.656,295
2.6579,251
2.6599,247
2.6618,332
2.6637,460
2.6656,526
2.6691,475
2.6706,384
2.6725,310
2.6744,262
2.6767,237
2.6779,293
2.6798,417
2.6828,517
2.6842,501
2.686,415
2.6879,334
2.6897,277
2.6914,240
2.6947,264
2.6965,373
2.6987,492
2.7004,516
2.7028,435
2.7041,339
2.706,263
2.7079,207
2.7097,187
2.7115,249
2.7147,349
2.7164,383
2.718,294
2.7198,172
2.7217,75
2.7236,7
2.7259,0
2.7289,41
2.7307,169
2.7325,288
2.7349,310
2.7368,279
2.739,265
2.7407,267
2.7426,269
2.7442,311
2.7453,424
2.7488,537
2.7505,553
2.7524,465
2.7547,365
2.7558,289
2.7579,241
2.7602,235
2.7628,320
2.7645,452
2.7663,522
2.7686,474
2.7697,384
2.7716,310
2.7741,262
2.777,238
2.7789,294
2.7805,420
2.7829,522
2.784,507
2.786,419
2.7879,336
2.7898,278
2.7916,240
2.7934,263
2.7966,372
2.7984,494
2.8001,523
2.8019,447
2.8037,358
2.8054,290
2.8085,246
2.8105,241
2.8116,324
2.8134,454
2.8169,524
2.8186,474
2.8197,383
2.8215,307
2.8244,257
2.826,231
2.8277,285
2.8294,410
2.8336,511
2.8346,497
2.8365,409
2.8376,325
2.8393,267
2.8427,231
2.8438,254
2.8456,363
2.8474,483
2.8495,513
2.8521,438
2.8538,350
2.8555,283
2.8572,239
2.8609,233
2.8624,314
2.8635,442
2.8653,511
2.8686,461
2.8703,370
2.872,295
2.8737,245
2.8759,220
2.877,273
2.8805,395
2.8822,495
2.8839,482
2.8856,394
2.8874,311
2.8907,256
2.8925,219
2.8942,239
2.8961,344
2.8978,464
2.8994,493
2.9012,419
2.9046,331
2.9063,266
2.9077,223
2.9095,217
2.9112,298
2.9149,425
2.9166,493
2.9185,444
2.9204,354
2.9223,279
2.9241,231
2.9256,205
2.9273,255
2.929,375
2.9324,475
2.9341,462
2.9359,375
2.9385,292
2.9403,236
2.942,199
2.944,219
2.946,322
2.948,443
2.9508,472
2.9519,399
2.9537,310
2.9555,246
2.9571,203
2.9606,195
2.9622,274
2.9639,399
2.9656,469
2.9673,421
2.969,330
2.9725,259
2.9742,211
2.976,187
2.9777,238
2.9794,359
2.9827,461
2.9843,451
2.9857,366
2.9874,286
2.9892,232
2.9908,199
2.9942,222
2.9959,328
2.9976,452
3.0006,487
3.002,418
3.0038,333
3.0055,272
3.0072,233
3.0106,230
3.0128,312
3.0139,441
3.016,515
3.0189,471
3.0207,383
3.0224,312
3.0241,266
3.0258,242
3.0276,294
3.0294,415
3.0326,518
3.0345,509
3.0363,425
3.0381,345
3.0398,289
3.0415,253
3.0446,273
3.0467,378
3.0477,497
3.0498,530
3.0526,459
3.0543,374
3.0566,310
3.0577,267
3.0595,259
3.0613,337
3.0632,461
3.0651,532
3.0686,485
3.0708,395
3.0727,320
3.0739,271
3.0762,245
3.0789,294
3.0796,414
3.0825,515
3.0841,506
3.0864,421
3.0876,340
3.0896,283
3.0914,246
3.0952,264
3.0956,367
3.0988,486
3.0999,520
3.1017,449
3.1039,361
3.1068,295
3.1092,251
3.1107,242
3.1118,319
3.1136,444
3.1154,517
3.1171,472
3.1205,383
3.1223,309
3.1246,261
3.1257,235
3.129,284
3.1307,404
3.1329,507
3.134,500
3.1366,415
3.1377,333
3.1395,276
3.1429,239
3.1447,257
3.1465,360
3.1484,480
3.1501,515
3.1523,443
3.154,356
3.1557,290
3.1574,247
3.1605,240
3.1624,317
3.1645,444
3.1656,518
3.1673,474
3.1691,385
3.1725,310
3.1748,260
3.1759,233
3.1777,281
3.1794,400
3.1827,504
3.1843,499
3.1861,414
3.1878,332
3.1899,276
3.1909,239
3.1945,256
3.1963,359
3.1981,479
3.1997,513
3.2017,443
3.2034,356
3.2051,290
3.2088,248
3.211,240
3.2125,317
3.2137,444
3.217,519
3.2186,476
3.2209,388
3.2225,313
3.2236,263
3.2253,236
3.2288,283
3.2305,403
3.2328,506
3.2339,501
3.2358,415
3.2378,332
3.2397,276
3.2415,239
3.245,255
3.2468,358
3.2487,479
3.2509,515
3.2524,445
3.2537,358
3.2572,292
3.2572,249
3.259,239
3.2626,314
3.2644,440
3.2665,513
3.2679,467
3.269,375
3.2726,296
3.2744,245
3.2767,217
3.2778,263
3.2797,383
3.2816,488
3.2846,483
3.2852,398
3.287,316
3.2906,260
3.2925,223
3.2948,241
3.296,343
3.2979,467
3.3004,507
3.3016,438
3.3035,351
3.3052,286
3.3071,243
3.3104,234
3.3131,310
3.3147,438
3.3158,516
3.3186,475
3.3202,387
3.3224,313
3.3235,264
3.3253,238
3.3287,285
3.3305,405
3.3329,511
3.3347,508
3.3359,423
3.3378,340
3.3397,282
3.3415,245
3.345,260
3.3468,361
3.3486,483
3.35,522
3.3525,453
3.3546,366
3.3551,299
3.3587,254
3.3605,243
3.3627,317
3.3644,444
3.3654,522
3.3674,480
3.3692,392
3.3709,317
3.3728,268
3.3763,240
3.3785,285
3.3798,404
3.3816,508
3.3845,502
3.3852,412
3.389,319
3.3901,251
3.3925,199
3.3939,194
3.397,269
3.3985,361
3.3995,366
3.4018,261
3.4047,144
3.4066,56
3.4082,0
3.4093,0
3.4133,69
3.4148,206
3.4161,311
3.4186,319
3.4206,298
3.4221,290
3.4247,289
3.4269,287
3.4287,340
3.4307,454
3.4319,548
3.4353,533
3.4368,436
3.4385,344
3.4401,279
3.4416,238
3.4449,252
3.446,354
3.4479,479
3.4498,522
3.4515,457
3.4543,371
3.4564,305
3.4583,262
3.4609,251
3.4627,325
3.4646,451
3.4658,530
3.4676,491
3.4694,402
3.4713,325
3.4745,274
3.4764,246
3.4777,289
3.4796,407
3.4814,514
3.4848,513
3.4867,430
3.4886,347
3.4904,287
3.4926,249
3.4936,262
3.4953,361
3.497,482
3.5005,524
3.5023,456
3.504,368
3.5058,300
3.5081,256
3.5091,244
3.5108,317
3.5143,444
3.5161,523
3.518,484
3.5199,395
3.5217,318
3.5249,267
3.5249,238
3.5284,280
3.5303,398
3.5323,504
3.5346,504
3.5358,420
3.5377,336
3.54,278
3.5429,240
3.5448,251
3.547,349
3.5486,473
3.5509,515
3.5529,448
3.5546,359
3.5562,291
3.5592,246
3.5592,233
3.5629,303
3.5648,429
3.5666,508
3.5686,469
3.5698,379
3.5723,301
3.5753,250
3.5767,219
3.5786,259
3.581,375
3.5822,482
3.5852,483
3.5868,399
3.588,314
3.5899,256
3.5917,217
3.5936,227
3.5954,323
3.5991,445
3.6009,488
3.6027,419
3.6046,329
3.6069,262
3.6087,218
3.6099,204
3.6128,275
3.6144,401
3.6169,481
3.6184,442
3.6208,351
3.622,274
3.6238,222
3.6258,191
3.6277,231
3.6295,346
3.6331,454
3.635,457
3.6365,373
3.6377,289
3.6396,230
3.6432,191
3.6432,200
3.6468,296
3.6486,420
3.6506,465
3.6528,399
3.6538,310
3.6556,244
3.6575,200
3.6593,187
3.6635,259
3.6646,386
3.6663,469
3.6683,435
3.6706,348
3.6721,274
3.6733,226
3.6771,199
3.6786,242
3.6798,362
3.6817,474
3.6834,481
3.6858,401
3.6877,320
3.6896,266
3.6915,230
3.6952,243
3.6952,343
3.6989,469
3.6989,517
3.7027,455
3.7039,369
3.7058,303
3.7076,260
3.7095,248
3.7135,319
3.7146,446
3.7163,529
3.7184,495
3.721,407
3.7226,331
3.7238,280
3.7257,251
3.7275,291
3.7312,407
3.733,516
3.7345,521
3.7364,439
3.7387,357
3.7398,297
3.7418,258
3.7437,267
3.7456,363
3.7491,485
3.7509,530
3.7527,465
3.7546,377
3.7568,308
3.758,264
3.7599,249
3.7628,318
3.7647,443
3.7658,526
3.7681,492
3.7691,404
3.7727,327
3.7747,276
3.7763,246
3.7789,284
3.7798,399
3.7823,507
3.7841,513
3.7861,431
3.788,347
3.7899,287
3.7926,249
3.7937,258
3.797,354
3.7984,478
3.8006,525
3.8019,461
3.8037,373
3.8056,305
3.8092,261
3.811,246
3.8125,314
3.8142,440
3.8165,524
3.8188,490
3.8188,402
3.8224,325
3.824,274
3.8259,243
3.8281,281
3.8311,396
3.8329,506
3.8329,514
3.8365,433
3.8383,351
3.8406,291
3.8417,252
3.8442,261
3.8468,356
3.8488,479
3.8502,527
3.8532,464
3.855,376
3.8571,308
3.8586,263
3.8602,248
3.8629,316
3.8652,441
3.8667,524
3.8681,492
3.8707,404
3.8727,327
3.8742,276
3.8771,246
3.8788,284
3.8806,399
3.8828,509
3.8843,516
3.8858,435
3.8887,352
3.8905,292
3.8929,252
3.8946,260
3.8962,354
3.8988,476
3.9008,524
3.9023,462
3.9033,375
3.9071,307
3.9089,262
3.9107,247
3.9133,314
3.9148,440
3.9164,526
3.9181,495
3.9211,407
3.9229,329
3.9248,277
3.9271,246
3.9286,282
3.9297,396
3.9322,506
3.9347,515
3.9367,433
3.9379,349
3.9399,288
3.9421,248
3.9435,255
3.9471,349
3.9471,473
3.9507,522
3.9526,460
3.9548,371
3.9559,301
3.9578,255
3.9597,236
3.9616,299
3.964,421
3.9653,503
3.967,470
3.9707,381
3.9729,303
3.9746,253
3.9757,222
3.978,258
3.9807,371
3.9825,481
3.9843,491
3.9865,411
3.9883,327
3.9903,269
3.9927,232
3.9939,239
3.9965,333
3.9993,459
4.0008,510
4.0024,450
4.0036,363
4.0054,295
4.0092,251
4.0114,236
4.0125,303
4.0146,431
4.0158,519
4.0179,490
4.0208,403
4.0226,327
4.0248,276
4.026,246
4.0286,280
4.0297,394
4.0315,504
4.0346,513
4.0369,433
4.0381,349
4.04,289
4.0419,250
4.0441,257
4.047,349
4.047,473
4.049,524
4.0529,463
4.054,375
4.0558,306
4.0575,261
4.0606,243
4.0625,309
4.0644,434
4.0666,522
4.0676,494
4.0695,406
4.0715,328
4.0752,274
4.0767,237
4.0785,263
4.0809,366
4.0824,466
4.0834,462
4.0869,363
4.0888,254
4.091,165
4.0922,93
4.0945,66
4.0957,132
4.0975,236
4.1006,278
4.1025,216
4.1047,138
4.1065,86
4.1075,66
4.1112,93
4.113,222
4.1148,413
4.1165,550
4.1184,549
4.1203,468
4.1228,384
4.1239,315
4.1256,266
4.1272,285
4.1307,385
4.1329,490
4.134,501
4.1358,422
4.1381,339
4.1403,282
4.1421,245
4.1439,252
4.1457,346
4.1473,471
4.1508,526
4.1526,467
4.1544,378
4.1558,309
4.1575,262
4.161,244
4.1628,307
4.1646,431
4.1668,520
4.1678,493
4.1702,406
4.1714,327
4.1731,274
4.1771,241
4.1786,274
4.1798,387
4.1817,499
4.1834,513
4.1854,433
4.1889,348
4.1908,286
4.1926,247
4.1947,251
4.1959,342
4.1978,467
4.1999,520
4.2029,460
4.2041,372
4.206,300
4.2078,254
4.2097,235
4.2115,297
4.2153,421
4.2164,510
4.2187,482
4.2199,395
4.2217,315
4.2236,263
4.2254,230
4.2292,261
4.2292,373
4.2328,486
4.2346,500
4.2363,421
4.2382,335
4.2398,273
4.2414,232
4.243,235
4.2463,324
4.2484,449
4.2495,503
4.2514,445
4.255,355
4.2567,284
4.2578,237
4.2596,218
4.2614,279
4.2648,403
4.2664,494
4.2682,467
4.2701,378
4.2718,298
4.2736,244
4.2754,210
4.2789,241
4.2806,352
4.2829,465
4.2848,480
4.286,401
4.2877,313
4.2896,251
4.2929,210
4.2949,212
4.2967,300
4.2978,425
4.2998,480
4.3026,421
4.3045,330
4.3067,260
4.3079,213
4.3098,191
4.3126,252
4.314,374
4.3164,464
4.3185,438
4.3201,348
4.3225,267
4.3243,213
4.3263,179
4.3288,209
4.3299,319
4.3317,435
4.3334,450
4.3353,371
4.3387,285
4.3405,223
4.3428,182
4.3448,184
4.3459,273
4.3479,400
4.35,458
4.351,401
4.3547,311
4.3565,243
4.3588,199
4.361,182
4.363,247
4.3646,374
4.3661,470
4.3672,449
4.3709,364
4.3731,287
4.3743,237
4.3767,207
4.3779,240
4.3798,354
4.3817,473
4.3839,493
4.3867,418
4.3879,335
4.3898,277
4.3926,240
4.394,244
4.397,335
4.3985,464
4.3995,525
4.4014,471
4.4051,383
4.4051,314
4.4076,269
4.4105,250
4.4123,311
4.4143,436
4.4159,528
4.4186,505
4.4206,417
4.4224,337
4.424,283
4.4259,249
4.4278,279
4.4297,390
4.4316,505
4.4335,523
4.4354,445
4.4391,360
4.4391,297
4.4426,255
4.4444,255
4.4462,344
4.4516,470
4.4519,529
4.4519,473
4.4544,383
4.4566,312
4.4577,266
4.4595,245
4.4613,304
4.463,428
4.4668,520
4.4679,498
4.4696,410
4.4713,330
4.4744,276
4.4762,242
4.4781,271
4.4799,381
4.4816,497
4.4833,517
4.4852,439
4.4885,355
4.4896,292
4.4913,250
4.4947,251
4.4964,338
4.4981,465
4.4998,526
4.5016,471
4.5034,382
4.5065,310
4.5083,263
4.5102,242
4.5121,302
4.514,427
4.5157,521
4.5173,500
4.5191,413
4.5224,333
4.5241,279
4.5258,245
4.5276,273
4.5292,383
4.5327,499
4.5345,521
4.5366,443
4.5377,357
4.5395,293
4.5412,252
4.5447,252
4.5465,339
4.5483,465
4.551,527
4.5525,473
4.5536,384
4.5553,312
4.5586,265
4.5607,244
4.5618,303
4.5636,426
4.5653,521
4.5687,502
4.5697,414
4.5715,335
4.5732,281
4.5751,247
4.5786,275
4.5803,385
4.582,501
4.5837,523
4.5856,446
4.5884,360
4.5901,296
4.5918,255
4.5935,254
4.5953,341
4.5989,467
4.5989,530
4.6018,476
4.6035,386
4.6054,313
4.6088,265
4.6106,243
4.6124,301
4.6148,426
4.6158,521
4.6178,503
4.6206,415
4.6223,334
4.6246,279
4.6256,245
4.6274,271
4.6309,381
4.6327,498
4.6345,520
4.6364,443
4.6385,357
4.6396,292
4.6413,250
4.6447,248
4.6469,333
4.648,460
4.6511,523
4.6511,469
4.655,378
4.6566,304
4.6578,254
4.6597,230
4.6618,285
4.6649,406
4.6666,500
4.6683,479
4.6705,391
4.6717,309
4.6736,254
4.6755,220
4.6788,246
4.6806,355
4.6825,472
4.6848,496
4.6861,420
4.6886,334
4.691,273
4.6934,233
4.6949,234
4.696,321
4.6978,449
4.6996,514
4.7031,462
4.7049,373
4.7068,301
4.7087,254
4.711,234
4.7126,293
4.7138,419
4.7156,518
4.7179,503
4.7209,417
4.7231,337
4.7243,281
4.7262,247
4.7286,272
4.7297,380
4.7316,498
4.7346,522
4.7361,446
4.7379,359
4.7397,294
4.742,252
4.7432,249
4.7467,334
4.749,461
4.7509,526
4.7525,475
4.7536,385
4.7568,312
4.7578,264
4.7596,241
4.7614,296
4.7632,419
4.7666,516
4.7686,500
4.7698,414
4.772,333
4.775,275
4.7769,235
4.7788,252
4.7807,351
4.7826,459
4.7847,470
4.7859,376
4.7878,264
4.7896,171
4.7914,94
4.7931,58
4.7965,114
4.7988,220
4.7999,273
4.8016,220
4.8048,141
4.8048,86
4.8071,63
4.8092,85
4.8112,207
4.8132,397
4.8152,547
4.8172,559
4.819,479
4.821,391
4.823,319
4.825,266
4.827,274
4.829,371
4.8311,482
4.8331,507
4.8348,433
4.8368,349
4.8389,288
4.8409,249
4.8429,248
4.8449,333
4.8469,462
4.8489,530
4.8507,479
4.8527,391
4.8547,317
4.8567,269
4.8587,245
4.8607,299
4.8627,421
4.8664,519
4.8669,505
4.8669,418
4.8669,336
4.8669,280
4.8745,244
4.8745,267
4.8745,375
4.8826,493
4.8826,520
4.8826,446
4.8826,359
4.89,295
4.8911,252
4.8911,248
4.8911,331
4.8911,457
4.8999,524
4.8999,473
4.8999,382
4.8999,308
4.9076,258
4.9098,234
4.9098,286
4.9098,408
4.9098,507
4.9175,493
4.9203,407
4.9203,324
4.9234,268
4.9254,231
4.9274,253
4.9295,359
4.9295,477
4.9331,505
4.9331,431
4.9331,342
4.9392,277
4.9392,234
4.9392,229
4.9392,309
4.9392,436
4.9392,504
4.9392,454
4.9392,365
4.9552,291
4.9552,242
4.9552,217
4.9552,268
4.9552,390
4.9552,489
4.9552,475
4.9552,388
4.9713,305
4.9713,249
4.9713,213
4.9713,233
4.9713,338
4.9713,457
4.9713,485
4.9713,411
4.9871,320
4.9897,255
4.9897,211
4.9897,205
4.9897,285
4.9897,410
4.9897,479
4.9897,428
5.0033,336
5.0033,263
5.0033,213
5.0033,187
5.0033,238
5.0033,358
5.0033,457
5.0033,443
5.019,357
5.019,274
5.0239,217
5.026,180
5.0266,200
5.0286,303
5.0306,424
5.0346,454
5.0346,381
5.0366,292
5.0366,228
5.0366,185
5.0366,178
5.0366,258
5.0366,385
5.0503,456
5.0503,410
5.054,320
5.054,250
5.054,204
5.0594,181
5.0604,235
5.0604,359
5.0663,464
5.0683,457
5.0704,374
5.0724,294
5.0744,241
5.0764,208
5.0784,231
5.0804,338
5.0822,464
5.0843,499
5.085,431
5.085,348
5.0899,287
5.0899,247
5.0899,243
5.0899,324
5.098,453
5.1001,526
5.1018,480
5.1034,392
5.105,318
5.1082,271
5.1098,246
5.1098,298
5.1141,420
5.1149,522
5.1149,514
5.1149,429
5.1208,348
5.1228,291
5.1228,254
5.1269,274
5.1302,378
5.131,498
5.1331,530
5.1331,458
5.1372,371
5.1392,305
5.1412,262
5.1432,255
5.1455,335
5.1484,461
5.149,532
5.1512,485
5.1512,396
5.1547,321
5.1547,271
5.1547,245
5.1615,294
5.1615,415
5.1646,516
5.1646,507
5.1646,422
5.1646,341
5.1646,284
5.1646,248
5.1773,267
5.1798,372
5.1819,491
5.1839,524
5.1859,453
5.188,366
5.1899,300
5.1899,257
5.1931,249
5.1931,328
5.1971,455
5.1991,527
5.1991,482
5.1991,393
5.1991,318
5.1991,270
5.21,244
5.212,293
5.2141,413
5.2141,516
5.2174,508
5.2174,424
5.2218,342
5.2218,286
5.2248,249
5.2248,268
5.2292,371
5.2312,491
5.2332,525
5.2353,454
5.2373,367
5.2393,301
5.2408,259
5.2428,251
5.2448,329
5.2469,455
5.2489,528
5.2509,484
5.2529,396
5.2529,321
5.2565,273
5.2595,247
5.2615,295
5.2636,415
5.2636,519
5.2636,512
5.2636,428
5.2636,347
5.2726,290
5.2726,252
5.2726,269
5.2726,372
5.2726,492
5.2726,527
5.2726,457
5.2726,370
5.2899,303
5.2899,260
5.2899,252
5.2899,329
5.2899,456
5.2999,530
5.2999,486
5.3042,397
5.3042,322
5.3042,272
5.3042,246
5.3042,293
5.3042,412
5.3042,515
5.3042,509
5.3202,425
5.3222,343
5.3222,286
5.3222,249
5.3222,265
5.3222,367
5.3222,487
5.3222,523
5.336,452
5.3373,365
5.3393,298
5.3413,254
5.3433,245
5.3453,322
5.3474,449
5.3494,524
5.3514,481
5.3514,390
5.3514,313
5.3514,261
5.3514,232
5.3514,276
5.3514,392
5.3514,494
5.3675,487
5.3675,401
5.3675,318
5.3675,261
5.3749,223
5.3769,239
5.3789,340
5.3789,462
5.3833,499
5.3833,430
5.3833,344
5.39,280
5.39,239
5.39,231
5.39,308
5.39,436
5.399,513
5.399,472
5.399,383
5.399,309
5.399,260
5.399,235
5.399,283
5.399,405
5.4151,512
5.4151,510
5.4151,426
5.4151,345
5.4151,287
5.4151,250
5.4151,265
5.4151,367
5.4309,488
5.4309,525
5.4309,456
5.4309,368
5.4309,301
5.4309,257
5.4309,247
5.4309,323
5.447,449
5.447,525
5.447,483
5.4542,394
5.4552,318
5.4586,268
5.4602,240
5.462,286
5.4637,404
5.4662,509
5.4685,505
5.4702,421
5.472,338
5.4737,276
5.4766,233
5.4783,240
5.4806,330
5.4831,441
5.4849,463
5.486,373
5.4877,258
5.4901,162
5.4912,84
5.4945,43
5.4963,93
5.4985,200
5.4996,269
5.5013,232
5.5031,157
5.5049,104
5.5082,87
5.5104,115
5.5109,230
5.5143,411
5.516,556
5.5172,572
5.5189,488
5.5224,394
5.5241,318
5.5258,263
5.5277,263
5.5303,354
5.5322,470
5.5341,509
5.5359,442
5.5377,358
5.5394,294
5.5412,253
5.5444,245
5.5459,321
5.5475,448
5.5492,527
5.5509,487
5.5544,399
5.5562,324
5.5578,274
5.5596,245
5.5613,289
5.5631,407
5.5663,513
5.5679,511
5.5697,427
5.5714,344
5.5745,286
5.5763,248
5.5785,261
5.5796,361
5.5813,482
5.5831,522
5.5863,454
5.5881,366
5.59,298
5.5917,253
5.5934,241
5.5952,313
5.597,440
5.6004,518
5.6021,478
5.6038,388
5.6056,311
5.6072,261
5.6103,232
5.612,275
5.6138,392
5.6154,498
5.6171,496
5.6202,412
5.622,328
5.6238,269
5.6256,231
5.6278,244
5.6303,343
5.632,466
5.6337,506
5.6355,438
5.6373,349
5.6391,281
5.6425,236
5.6442,223
5.6459,295
5.6475,420
5.6492,498
5.6508,459
5.6542,369
5.6559,293
5.6584,243
5.6602,214
5.662,256
5.6637,372
5.6658,478
5.6686,477
5.6705,393
5.6715,308
5.6745,250
5.6762,210
5.6785,222
5.6795,319
5.6813,442
5.6845,483
5.6859,415
5.6885,325
5.6905,258
5.6918,214
5.694,201
5.6951,272
5.6983,396
5.7004,475
5.7018,436
5.7043,346
5.7065,269
5.7081,218
5.71,188
5.7128,229
5.7145,344
5.7159,450
5.7184,449
5.7202,365
5.7226,281
5.724,222
5.727,183
5.7284,193
5.7294,289
5.7329,412
5.7343,455
5.7362,388
5.7381,298
5.7395,231
5.7413,187
5.7447,174
5.7461,245
5.7478,371
5.7496,453
5.7528,417
5.7543,327
5.7561,254
5.7579,206
5.7606,179
5.7626,223
5.7639,342
5.7663,454
5.768,459
5.7701,379
5.7712,298
5.7746,245
5.7764,210
5.7782,225
5.7803,325
5.7814,454
5.7843,501
5.7864,439
5.7874,355
5.7904,290
5.7922,249
5.7939,238
5.7956,311
5.7973,439
5.7991,521
5.8022,487
5.8044,399
5.8054,324
5.8071,275
5.8089,246
5.8125,288
5.8145,405
5.8163,514
5.8184,518
5.8194,437
5.8211,355
5.8244,297
5.826,259
5.8276,269
5.8293,367
5.8309,488
5.8342,532
5.8359,467
5.8376,379
5.8393,312
5.841,268
5.8444,254
5.846,324
5.8477,449
5.8495,529
5.8513,494
5.8529,406
5.8547,329
5.858,278
5.8597,248
5.8613,288
5.863,403
5.866,511
5.8677,514
5.8694,432
5.871,349
5.8744,291
5.8764,253
5.8774,263
5.8804,360
5.8822,482
5.8832,527
5.8864,463
5.8881,376
5.8908,308
5.8925,264
5.8943,250
5.8958,319
5.8986,445
5.8992,526
5.9027,492
5.9041,404
5.9064,327
5.9081,277
5.9097,247
5.9114,286
5.9145,401
5.9162,509
5.9186,514
5.9196,433
5.9213,351
5.9243,292
5.9265,254
5.9283,263
5.9302,360
5.9323,482
5.9333,528
5.9351,464
5.9369,376
5.9404,309
5.9425,265
5.9435,250
5.9453,319
5.947,444
5.9504,527
5.9522,493
5.9539,406
5.9556,331
5.9584,280
5.9602,251
5.9619,289
5.9635,404
5.9652,512
5.9682,517
5.9695,435
5.9713,353
5.973,293
5.9764,254
5.9782,263
5.9799,359
5.9816,482
5.9832,530
5.9848,466
5.9881,379
5.9902,311
5.9912,267
5.9928,252
5.9959,321
5.9975,445
5.9991,528
6.0008,494
6.004,407
6.0055,331
6.0072,280
6.0088,250
6.0121,287
6.0137,402
6.0154,511
6.0171,517
6.0203,435
6.0225,352
6.0236,292
6.0252,253
6.0269,261
6.0302,355
6.0318,477
6.0337,524
6.0363,460
6.038,373
6.0396,305
6.0413,261
6.043,246
6.0464,313
6.0481,437
6.0498,520
6.0515,485
6.0532,395
6.0549,315
6.0585,262
6.0602,229
6.062,265
6.0637,378
6.0654,487
6.0672,493
6.069,413
6.0725,328
6.0746,270
6.0757,231
6.0775,239
6.0792,333
6.081,458
6.0845,507
6.0862,447
6.088,362
6.0901,295
6.0915,252
6.0932,237
6.0967,303
6.0984,427
6.1005,512
6.1016,481
6.1038,394
6.1066,319
6.1083,271
6.11,243
6.1118,281
6.1136,396
6.1154,507
6.1171,515
6.1205,435
6.1222,352
6.1239,293
6.1258,255
6.1276,263
6.1305,357
6.1324,479
6.1345,528
6.1361,466
6.1379,378
6.1397,309
6.1415,264
6.1432,247
6.145,313
6.1485,437
6.1511,522
6.1522,490
6.1541,403
6.1559,327
6.1577,277
6.1594,247
6.1611,283
6.1647,396
6.1657,506
6.1674,512
6.1694,428
6.1712,335
6.1746,265
6.1766,213
6.178,204
6.1791,277
6.1826,378
6.1843,401
6.1862,308
6.188,192
6.1906,100
6.1918,35
6.1939,4
6.1967,67
6.1985,198
6.2003,304
6.2023,300
6.2043,253
6.2062,239
6.2085,254
6.2101,274
6.2131,340
6.2147,462
6.2157,568
6.2175,565
6.2194,468
6.2212,369
6.2253,295
6.2264,247
6.2287,247
6.2299,338
6.2318,463
6.2336,517
6.2355,458
6.2374,373
6.2406,306
6.2424,263
6.2443,247
6.2461,313
6.2479,437
6.2495,523
6.2515,494
6.2532,406
6.2551,328
6.2586,277
6.2601,246
6.2618,280
6.2637,392
6.2654,502
6.2672,512
6.269,430
6.2725,346
6.2743,286
6.2761,247
6.2778,252
6.2795,344
6.2829,469
6.2847,521
6.287,460
6.2885,373
6.2897,303
6.2916,257
6.2934,240
6.2969,304
6.2994,428
6.3004,514
6.3026,485
6.3042,396
6.3056,318
6.3083,266
6.3095,234
6.313,268
6.313,380
6.3165,491
6.3183,502
6.3206,422
6.3216,337
6.3233,277
6.3251,236
6.3268,240
6.3298,329
6.3315,453
6.3333,505
6.3351,444
6.3385,355
6.3396,286
6.3417,241
6.3428,222
6.3458,285
6.347,407
6.3504,494
6.3521,463
6.3539,374
6.3556,294
6.3573,241
6.3603,209
6.362,242
6.3637,355
6.3654,468
6.367,479
6.3703,400
6.372,314
6.3734,254
6.375,214
6.3784,217
6.38,306
6.3818,429
6.3834,481
6.3851,420
6.3868,328
6.3902,260
6.3913,214
6.393,195
6.3963,258
6.398,381
6.3996,470
6.4014,442
6.4029,353
6.4062,274
6.4083,221
6.4094,187
6.411,217
6.4143,325
6.416,437
6.418,448
6.419,367
6.4207,281
6.4239,220
6.4255,180
6.4271,183
6.4303,273
6.4319,398
6.4335,452
6.4352,391
6.4369,300
6.4401,231
6.4418,186
6.4436,169
6.4449,233
6.4479,359
6.45,451
6.451,426
6.4543,339
6.4559,264
6.4575,215
6.4591,186
6.4625,221
6.4641,336
6.4663,453
6.4675,471
6.4702,395
6.4718,313
6.4733,256
6.475,220
6.4784,227
6.4795,320
6.4836,449
6.4848,508
6.4848,453
6.4883,368
6.4896,302
6.4915,259
6.4936,243
6.4965,307
6.4983,434
6.5004,525
6.5018,501
6.5029,415
6.5064,337
6.5081,284
6.5105,252
6.5115,283
6.5133,395
6.5151,508
6.5182,523
6.52,445
6.5218,362
6.5236,300
6.5254,261
6.5275,264
6.5303,355
6.5325,480
6.5339,536
6.5359,479
6.5379,391
6.539,320
6.5425,274
6.5443,254
6.5465,315
6.5479,438
6.5507,528
6.5524,503
6.5535,415
6.5554,338
6.5572,285
6.559,253
6.5626,285
6.5647,395
6.5664,508
6.5681,523
6.5695,443
6.5713,359
6.573,297
6.5748,256
6.5784,258
6.5801,347
6.582,471
6.5832,528
6.5866,470
6.5886,382
6.59,312
6.5921,266
6.5952,247
6.5952,308
6.5991,432
6.6006,523
6.6018,499
6.6037,411
6.6055,332
6.6092,279
6.611,246
6.6128,276
6.6147,388
6.6166,501
6.6185,518
6.6206,441
6.6218,357
6.6237,296
6.6257,257
6.628,260
6.631,350
6.6325,474
6.6341,533
6.6358,476
6.6375,388
6.6393,317
6.6426,271
6.6441,250
6.6459,310
6.648,433
6.649,524
6.6524,500
6.654,413
6.6557,335
6.6575,283
6.6593,251
6.6611,281
6.6643,391
6.666,505
6.6678,522
6.6695,444
6.6713,360
6.6731,298
6.6765,258
6.6783,259
6.6802,347
6.6819,471
6.6836,530
6.6854,474
6.6872,386
6.689,316
6.6923,271
6.6933,251
6.6963,310
6.6981,433
6.6998,524
6.7016,501
6.7034,414
6.7051,336
6.7084,283
6.7102,249
6.712,278
6.7137,386
6.7155,499
6.7172,516
6.7205,439
6.7223,355
6.724,293
6.7257,252
6.7275,252
6.7292,338
6.731,461
6.7343,519
6.7361,462
6.7379,371
6.7396,298
6.7413,250
6.7431,229
6.7464,287
6.7482,410
6.7499,502
6.7517,479
6.7534,392
6.7551,312
6.7568,260
6.7594,227
6.7612,256
6.7644,367
6.7661,483
6.7679,505
6.7697,429
6.7715,346
6.7732,286
6.7749,246
6.7782,247
6.78,334
6.7817,459
6.7833,520
6.7852,467
6.7869,380
6.7903,311
6.7921,266
6.7931,246
6.7948,306
6.7982,429
6.7999,523
6.8015,503
6.8033,418
6.805,340
6.8083,287
6.8101,253
6.8119,280
6.8136,388
6.8154,503
6.8184,522
6.8201,445
6.8218,360
6.8236,297
6.8253,255
6.827,254
6.8287,340
6.8324,464
6.8335,523
6.8353,468
6.837,379
6.8404,310
6.842,264
6.8438,243
6.8455,300
6.8472,421
6.8489,512
6.8519,486
6.8531,391
6.8548,302
6.8581,237
6.8598,188
6.8615,195
6.8632,277
6.8649,365
6.8682,354
6.8693,246
6.871,139
6.8743,61
6.876,9
6.8776,8
6.8794,103
6.8811,247
6.8829,340
6.8858,333
6.887,307
6.8903,300
6.8919,300
6.8935,302
6.8953,366
6.897,479
6.9001,560
6.9019,525
6.9031,424
6.9049,334
6.9076,273
6.9088,235
6.9121,260
6.9137,369
6.9153,486
6.9169,509
6.9201,436
6.9218,355
6.9234,294
6.925,255
6.9282,255
6.93,342
6.9316,466
6.9333,527
6.9362,472
6.9376,384
6.9392,313
6.9423,268
6.9438,248
6.9455,305
6.9472,426
6.9497,520
6.9522,499
6.9527,413
6.9561,334
6.9573,281
6.9603,247
6.962,272
6.9636,378
6.9652,492
6.9668,513
6.97,436
6.9718,351
6.9734,289
6.975,248
6.9783,247
6.98,331
6.9813,455
6.983,517
6.9863,463
6.9883,375
6.9893,304
6.991,258
6.9943,236
6.9959,291
6.9975,411
6.9992,505
7.0009,486
7.0042,399
7.0059,319
7.0076,266
7.0092,230
7.0124,254
7.0141,360
7.0158,474
7.0183,496
7.0188,419
7.0221,333
7.0237,271
7.0253,229
7.0285,227
7.0302,310
7.0318,436
7.0334,500
7.0352,449
7.0384,360
7.04,288
7.0418,242
7.0435,218
7.0452,271
7.0469,391
7.0505,485
7.0516,467
7.0533,380
7.055,300
7.0583,246
7.06,211
7.0618,235
7.0642,339
7.0658,456
7.0674,479
7.0705,403
7.0718,315
7.0734,252
7.0751,209
7.078,205
7.0792,288
7.0825,414
7.0842,479
7.086,427
7.0877,336
7.0894,264
7.0911,215
7.0944,190
7.0958,243
7.0975,361
7.1006,456
7.1006,439
7.1041,352
7.1058,272
7.1074,217
7.1104,181
7.1122,203
7.1138,306
7.1155,423
7.1176,448
7.1203,374
7.122,287
7.1237,227
7.1255,186
7.1273,184
7.1304,267
7.1325,394
7.1335,461
7.1351,412
7.1368,324
7.1402,257
7.1418,213
7.1436,192
7.1453,250
7.1469,374
7.1503,475
7.152,462
7.1536,380
7.1552,303
7.1584,252
7.1603,220
7.1608,246
7.1642,356
7.1658,477
7.1674,507
7.169,436
7.1723,353
7.1739,293
7.1753,255
7.1783,252
7.18,336
7.1816,461
7.1833,527
7.185,478
7.1886,391
7.1903,321
7.1921,276
7.1937,254
7.1954,307
7.1971,428
7.2006,524
7.2023,509
7.2041,424
7.2058,345
7.2079,291
7.209,256
7.2107,279
7.2142,385
7.2159,501
7.2175,528
7.2193,455
7.221,371
7.2246,307
7.2264,266
7.228,260
7.2297,341
7.2315,465
7.2332,531
7.2349,482
7.2383,393
7.24,321
7.2417,274
7.2434,250
7.2465,302
7.2482,422
7.2505,519
7.2528,506
7.2542,419
7.2565,339
7.2575,284
7.2593,250
7.261,272
7.2643,377
7.2659,493
7.2676,521
7.2694,447
7.2711,362
7.2728,299
7.2761,258
7.2777,253
7.2793,335
7.2809,459
7.2844,525
7.2855,475
7.2873,387
7.289,315
7.2925,269
7.2941,246
7.2958,299
7.2975,420
7.3005,518
7.3021,504
7.3031,419
7.3049,340
7.3082,285
7.3099,251
7.3116,273
7.3133,379
7.3151,496
7.318,524
7.3198,450
7.3216,364
7.3233,300
7.3249,259
7.3283,253
7.3302,333
7.3313,459
7.3343,527
7.3361,479
7.3379,392
7.3397,320
7.3414,274
7.3431,249
7.3465,300
7.3482,418
7.3502,515
7.3513,500
7.353,414
7.3564,334
7.3581,280
7.3598,246
7.3614,268
7.3631,373
7.3664,491
7.3681,520
7.3699,448
7.3715,363
7.3732,298
7.3764,257
7.3781,251
7.3797,331
7.3827,456
7.3845,524
7.3856,476
7.3874,387
7.389,313
7.3923,264
7.3939,239
7.3954,290
7.397,411
7.4002,512
7.4018,500
7.4034,415
7.405,334
7.4078,277
7.4095,238
7.4112,255
7.4129,355
7.4162,469
7.4178,496
7.4195,423
7.4211,337
7.4229,274
7.4262,233
7.4278,227
7.4295,307
7.4324,433
7.4341,504
7.4358,457
7.4374,370
7.4391,298
7.4409,252
7.4442,229
7.4464,281
7.4477,402
7.4505,502
7.4519,492
7.4537,408
7.4554,327
7.4571,272
7.4604,237
7.462,258
7.4633,363
7.4651,483
7.4668,517
7.4704,447
7.4721,364
7.4739,301
7.4757,260
7.4775,254
7.4793,333
7.481,458
7.4845,527
7.4863,480
7.4879,391
7.4897,317
7.4914,269
7.4938,243
7.4949,291
7.4983,410
7.4999,510
7.5016,500
7.5033,415
7.5049,335
7.5082,280
7.5098,244
7.5108,264
7.5142,368
7.5159,486
7.5176,519
7.5193,447
7.521,361
7.5245,295
7.5261,248
7.5278,234
7.5296,303
7.5313,417
7.533,472
7.5363,408
7.5384,294
7.5394,195
7.5424,114
7.5441,54
7.5459,72
7.5476,167
7.5494,254
7.551,242
7.5528,166
7.5563,104
7.5585,75
7.5595,82
7.5611,165
7.5628,334
7.5662,508
7.5677,572
7.5695,512
7.5712,422
7.5729,344
7.5765,285
7.5784,263
7.5797,328
7.5824,445
7.5841,513
7.5859,467
7.5876,381
7.5894,310
7.5911,265
7.5944,242
7.5961,291
7.5979,412
7.5995,513
7.6013,506
7.6031,421
7.6063,340
7.6081,284
7.6097,247
7.6114,265
7.613,367
7.616,485
7.6177,519
7.6195,448
7.6213,362
7.6229,298
7.6262,257
7.6279,249
7.6296,326
7.6313,451
7.6345,522
7.6363,476
7.638,388
7.6396,313
7.6424,264
7.6442,238
7.6459,285
7.6477,403
7.6494,505
7.6511,497
7.6544,411
7.6562,330
7.6581,274
7.6598,237
7.6615,254
7.6632,356
7.6649,475
7.6682,509
7.6699,440
7.6716,353
7.6733,288
7.675,245
7.6785,236
7.6798,312
7.6816,436
7.6833,508
7.685,463
7.6885,374
7.6902,301
7.692,253
7.6944,226
7.6955,272
7.6973,389
7.6991,491
7.7026,483
7.7043,399
7.7061,317
7.7079,262
7.7096,224
7.7114,240
7.7131,339
7.7164,458
7.7183,492
7.7197,422
7.7215,333
7.7232,269
7.7249,226
7.7282,216
7.7301,291
7.7317,416
7.7345,488
7.7355,443
7.7372,354
7.739,280
7.7424,230
7.7444,202
7.7454,247
7.7472,364
7.7507,467
7.7525,461
7.7543,376
7.7555,292
7.759,236
7.7607,197
7.7626,212
7.7648,310
7.7658,431
7.7678,466
7.7707,395
7.7725,305
7.7743,241
7.7762,198
7.778,188
7.7798,262
7.7816,387
7.7833,461
7.7851,418
7.7869,328
7.7904,255
7.7922,206
7.7939,178
7.796,223
7.7972,340
7.799,445
7.8024,441
7.8042,359
7.8064,279
7.8074,226
7.8092,191
7.8109,210
7.8144,312
7.8161,436
7.8179,477
7.8196,410
7.8214,324
7.8232,263
7.825,223
7.8285,216
7.8303,294
7.8327,422
7.8341,500
7.8351,460
7.8387,375
7.8405,304
7.8415,259
7.8432,235
7.8467,283
7.8478,403
7.8499,508
7.851,505
7.8544,423
7.8562,343
7.8581,288
7.8599,252
7.8617,268
7.8635,369
7.8653,488
7.867,526
7.8704,457
7.8723,372
7.8742,306
7.876,264
7.8778,254
7.8795,328
7.8813,454
7.883,529
7.8866,489
7.8883,400
7.89,326
7.8921,277
7.8931,250
7.8964,294
7.8981,411
7.8999,514
7.9016,510
7.9034,427
7.9052,345
7.9081,288
7.9099,251
7.9116,266
7.9134,366
7.9152,486
7.9169,525
7.9203,457
7.922,371
7.9237,305
7.9254,262
7.9271,251
7.9288,324
7.9324,449
7.9334,525
7.9351,483
7.9385,394
7.9402,319
7.9425,269
7.9436,242
7.9456,286
7.9479,404
7.9505,509
7.9523,507
7.9542,424
7.957,343
7.9581,286
7.9599,249
7.9617,263
7.9635,363
7.9657,484
7.9684,523
7.9705,456
7.9715,370
7.9733,303
7.9765,260
7.9783,249
7.9793,321
7.9811,446
7.9845,523
7.9863,483
7.9883,396
7.9894,321
7.9912,273
7.9929,245
7.9958,289
7.9976,406
7.9993,512
8.001,511
8.0042,428
8.0065,347
8.0075,289
8.0094,252
8.0111,265
8.0144,364
8.0161,485
8.0183,525
8.0197,458
8.0225,371
8.0245,305
8.0256,262
8.0274,250
8.0305,323
8.0323,448
8.0345,526
8.0355,487
8.0371,398
8.039,323
8.0426,273
8.0444,245
8.0462,287
8.0481,403
8.0504,509
8.0515,507
8.0533,425
8.0551,343
8.057,285
8.0604,248
8.0622,260
8.064,359
8.0663,480
8.0682,522
8.0704,456
8.0721,370
8.0738,303
8.0755,259
8.0772,246
8.0791,314
8.0824,435
8.0834,509
8.0853,467
8.0885,375
8.0902,298
8.0923,248
8.0933,220
8.0962,262
8.0968,379
8.1,485
8.1017,486
8.1034,404
8.1053,322
8.1071,267
8.1089,230
8.1123,243
8.1144,342
8.1154,466
8.117,508
8.1206,443
8.1223,356
8.1238,290
8.1255,247
8.1273,235
8.1291,307
8.1327,433
8.1345,515
8.1362,479
8.1384,393
8.1394,320
8.1425,271
8.1442,243
8.146,285
8.1478,401
8.1497,507
8.1525,508
8.1543,425
8.1561,343
8.1582,285
8.1593,247
8.1611,259
8.163,357
8.1648,478
8.1684,521
8.1705,455
8.1715,368
8.1733,302
8.1751,259
8.1785,245
8.1802,315
8.1824,440
8.1834,520
8.1851,484
8.1886,396
8.1886,321
8.1913,271
8.1932,241
8.1964,277
8.1982,385
8.1999,482
8.2017,472
8.2035,374
8.2056,272
8.2083,191
8.2101,124
8.212,101
8.2137,165
8.2154,260
8.2172,285
8.2206,207
8.2224,118
8.2242,60
8.2259,32
8.2277,44
8.2294,158
8.2311,349
8.2344,499
8.2362,514
8.238,453
8.2397,385
8.2414,325
8.2431,281
8.2464,303
8.2481,404
8.2498,500
8.2514,496
8.2531,412
8.2548,329
8.2581,274
8.2599,239
8.2615,252
8.2632,351
8.2649,475
8.2684,520
8.2704,456
8.2714,370
8.2731,303
8.2764,260
8.2782,245
8.2801,315
8.2818,440
8.2835,520
8.2854,485
8.2871,397
8.2906,320
8.2923,270
8.2941,241
8.2964,280
8.2976,396
8.299,503
8.3023,507
8.3041,425
8.3059,343
8.3077,285
8.3095,246
8.3113,256
8.3143,352
8.316,474
8.3178,519
8.3196,454
8.3214,366
8.3231,299
8.3265,255
8.3283,240
8.3301,308
8.3319,433
8.3336,513
8.3354,477
8.3371,388
8.3388,311
8.3423,261
8.3444,230
8.3454,269
8.3471,383
8.3504,490
8.3515,493
8.3532,411
8.355,327
8.3583,269
8.3601,230
8.3618,238
8.3635,333
8.3653,455
8.367,501
8.3703,436
8.3721,348
8.3737,280
8.3754,236
8.3772,221
8.379,289
8.3823,413
8.3844,495
8.3855,459
8.3872,371
8.389,293
8.3908,242
8.3942,211
8.3959,248
8.3975,361
8.3992,469
8.4008,473
8.4042,391
8.4059,306
8.4084,247
8.4101,207
8.4118,215
8.4135,307
8.4152,429
8.4168,476
8.4202,411
8.4219,322
8.4235,254
8.4254,210
8.4271,194
8.4304,261
8.4321,384
8.4337,466
8.4354,432
8.4371,342
8.4404,265
8.4421,214
8.4439,183
8.4456,220
8.4473,332
8.4489,441
8.4522,446
8.4522,364
8.4565,280
8.4578,222
8.4604,182
8.4624,190
8.4643,284
8.4659,408
8.4685,457
8.4696,394
8.4714,307
8.4732,243
8.475,201
8.4784,188
8.4801,257
8.4823,384
8.4833,470
8.485,440
8.4886,355
8.4897,283
8.4914,236
8.4932,209
8.4948,250
8.4982,367
8.5,480
8.5018,491
8.5035,413
8.5053,332
8.5069,277
8.5103,241
8.5121,251
8.5138,348
8.5156,473
8.5173,523
8.5205,463
8.5223,377
8.5237,310
8.5254,267
8.5272,252
8.529,320
8.5323,445
8.5342,530
8.5355,498
8.5373,410
8.5391,333
8.5424,282
8.5443,252
8.5461,289
8.5479,403
8.5495,513
8.5514,520
8.5532,439
8.5566,357
8.558,297
8.5599,258
8.5616,265
8.5634,360
8.5651,482
8.5685,531
8.5702,469
8.5719,382
8.5736,313
8.5754,269
8.5771,253
8.5789,318
8.5823,442
8.5844,527
8.5855,494
8.5873,407
8.589,330
8.5923,279
8.5942,248
8.596,284
8.5971,397
8.5989,507
8.6023,514
8.6041,434
8.606,351
8.6077,291
8.6094,252
8.6111,259
8.6128,352
8.6161,475
8.6173,525
8.619,463
8.6223,377
8.6239,308
8.6256,264
8.6272,248
8.6289,314
8.6307,438
8.6334,525
8.6352,495
8.6369,408
8.6404,331
8.6421,281
8.6439,250
8.6456,284
8.6474,398
8.6492,508
8.6508,518
8.6539,437
8.6556,353
8.6573,293
8.659,254
8.6624,260
8.6637,354
8.6664,476
8.6678,528
8.6697,467
8.6715,380
8.6733,311
8.675,266
8.6783,249
8.6801,314
8.6827,438
8.6833,524
8.685,494
8.6868,406
8.6905,328
8.6926,277
8.6936,246
8.6954,281
8.6974,394
8.6992,505
8.701,516
8.7043,437
8.7062,354
8.708,294
8.7097,255
8.7115,260
8.713,353
8.7161,476
8.718,528
8.7197,467
8.7215,378
8.7232,309
8.7249,264
8.7282,247
8.73,312
8.7317,436
8.7334,522
8.7351,492
8.7384,404
8.7402,327
8.742,276
8.7437,245
8.745,279
8.7485,392
8.7502,503
8.7519,514
8.7537,433
8.7554,347
8.7572,284
8.7603,241
8.762,242
8.7637,331
8.7656,453
8.7673,505
8.769,444
8.7724,355
8.7744,285
8.7754,240
8.7771,223
8.7789,288
8.7822,413
8.784,501
8.7857,474
8.7874,388
8.789,312
8.7923,262
8.794,232
8.7957,267
8.7977,380
8.7994,493
8.8011,505
8.8028,427
8.8061,344
8.8079,286
8.8096,247
8.8112,253
8.8129,347
8.8161,472
8.8178,527
8.8196,468
8.8212,380
8.823,311
8.8262,266
8.828,248
8.8297,311
8.8313,434
8.833,521
8.8363,494
8.8383,406
8.8401,329
8.8419,278
8.8436,246
8.8452,279
8.8469,391
8.8504,503
8.8515,515
8.8531,436
8.8549,352
8.8583,291
8.8601,252
8.8619,256
8.8636,346
8.8653,470
8.867,525
8.8704,465
8.8724,375
8.8734,300
8.8751,247
8.8769,219
8.8803,271
8.8824,379
8.8834,447
8.8852,394
8.8886,273
8.8903,164
8.8919,79
8.8936,21
8.8953,33
8.898,131
8.9001,244
8.9014,271
8.903,212
8.9064,158
8.908,147
8.9097,174
8.9113,241
8.913,376
8.9163,522
8.918,582
8.9197,516
8.9214,413
8.923,327
8.9247,267
8.9279,239
8.9296,295
8.9312,417
8.9341,508
8.9358,485
8.9375,400
8.9392,325
8.9408,276
8.9442,245
8.9462,278
8.9473,390
8.949,503
8.9523,517
8.9541,439
8.9557,355
8.9574,294
8.959,254
8.9622,257
8.964,347
8.9656,470
8.9674,526
8.9691,467
8.9724,379
8.9742,309
8.976,264
8.9777,244
8.9793,306
8.9825,428
8.9842,518
8.986,491
8.9877,404
8.9894,325
8.9928,273
8.9945,240
8.9962,270
8.9989,381
9.0005,493
9.0023,507
9.0042,429
9.006,345
9.0078,284
9.0095,244
9.0124,247
9.0143,335
9.016,460
9.0179,515
9.0197,456
9.0214,368
9.0232,298
9.0249,252
9.0284,233
9.0303,293
9.0321,414
9.0338,503
9.0355,478
9.0373,390
9.039,311
9.0424,259
9.0442,226
9.0457,256
9.0474,365
9.049,478
9.0524,493
9.054,415
9.0555,329
9.0572,269
9.0588,228
9.0617,229
9.0636,315
9.0653,440
9.067,496
9.0688,438
9.0721,349
9.0738,279
9.0755,232
9.0784,212
9.0801,271
9.0818,392
9.0835,481
9.0851,456
9.0868,367
9.0901,288
9.0918,234
9.0934,201
9.0953,229
9.097,337
9.1003,450
9.1025,466
9.1035,387
9.1053,301
9.1071,240
9.1089,199
9.1123,199
9.114,285
9.1156,408
9.1173,465
9.1206,407
9.1223,316
9.1245,247
9.1255,200
9.1273,178
9.1308,237
9.133,358
9.134,449
9.1359,425
9.1377,335
9.1394,258
9.1411,205
9.1444,172
9.1457,202
9.1474,311
9.1492,429
9.1526,448
9.1543,372
9.1563,289
9.1573,232
9.1602,195
9.162,199
9.1637,289
9.1654,417
9.167,479
9.1705,426
9.1726,341
9.174,275
9.1754,233
9.1782,216
9.1804,279
9.1821,405
9.1844,500
9.1866,481
9.1883,397
9.1893,321
9.1924,271
9.1938,240
9.1955,271
9.1972,382
9.2004,497
9.2021,516
9.2035,440
9.2052,357
9.2068,297
9.2101,257
9.2118,259
9.2135,346
9.2164,470
9.218,528
9.2198,472
9.2215,385
9.2232,314
9.2265,269
9.2282,249
9.2298,307
9.2315,428
9.2331,520
9.2348,499
9.2382,413
9.2398,335
9.2414,283
9.2431,251
9.2448,279
9.248,388
9.2498,502
9.2514,520
9.2531,443
9.2562,359
9.2579,297
9.2595,256
9.2611,256
9.2643,343
9.2659,466
9.2676,525
9.2694,470
9.271,383
9.2744,313
9.276,267
9.2777,246
9.2794,304
9.2811,426
9.2844,518
9.286,496
9.2878,410
9.2895,331
9.2912,278
9.2928,245
9.2963,273
9.2979,382
9.2995,496
9.3011,516
9.3043,441
9.306,357
9.3077,296
9.3094,256
9.3111,256
9.3127,342
9.3161,466
9.3177,526
9.3194,472
9.3211,384
9.3228,314
9.3261,268
9.3274,247
9.3288,305
9.3324,427
9.3334,520
9.3351,499
9.3385,413
9.3402,335
9.3419,283
9.3435,249
9.3448,277
9.348,385
9.3496,500
9.3513,520
9.353,444
9.3561,360
9.3579,299
9.3595,259
9.3611,258
9.3643,344
9.366,468
9.3677,529
9.3694,476
9.371,388
9.3741,317
9.3762,271
9.3773,249
9.3789,306
9.3837,427
9.3837,520
9.3854,501
9.387,414
9.3903,336
9.3919,284
9.3936,250
9.3952,277
9.3969,384
9.4004,499
9.4014,519
9.4032,443
9.4049,359
9.4084,297
9.4096,257
9.4113,255
9.4131,339
9.4165,462
9.4186,522
9.4196,468
9.4213,379
9.4231,308
9.4248,263
9.4282,242
9.4297,299
9.4313,421
9.433,514
9.4363,494
9.4383,405
9.4393,323
9.4424,267
9.4444,230
9.4454,253
9.4471,360
9.4505,475
9.4522,497
9.4543,421
9.4553,333
9.4583,271
9.4602,230
9.4613,228
9.463,312
9.4664,439
9.4681,503
9.4699,453
9.4716,366
9.4734,298
9.4762,254
9.478,232
9.4797,288
9.4814,410
9.4842,504
9.4864,486
9.4874,401
9.4893,323
9.4926,272
9.4943,240
9.496,267
9.4978,377
9.4999,494
9.5023,517
9.5045,443
9.5056,358
9.5073,295
9.5091,255
9.5125,253
9.5142,337
9.5159,461
9.5177,524
9.5194,472
9.5211,384
9.5228,313
9.5262,266
9.5283,244
9.5294,299
9.5312,420
9.5329,514
9.5364,496
9.5376,410
9.5394,331
9.5411,278
9.5446,244
9.5462,269
9.5483,376
9.5493,492
9.551,515
9.5527,438
9.5563,346
9.5581,276
9.5599,225
9.5617,210
9.5634,277
9.5651,380
9.5685,416
9.5699,331
9.5715,209
9.5734,108
9.5751,37
9.5784,0
9.5803,42
9.5821,164
9.584,275
9.5851,283
9.5886,232
9.5903,211
9.5924,226
9.5934,248
9.5951,309
9.5986,431
9.6002,547
9.6019,562
9.6037,472
9.6054,372
9.6072,296
9.6106,246
9.612,239
9.6137,321
9.6155,448
9.6173,515
9.619,466
9.6224,380
9.6239,311
9.6256,265
9.6274,243
9.6291,299
9.6309,421
9.6343,518
9.6362,502
9.638,417
9.6397,338
9.6414,283
9.6432,249
9.6465,272
9.6483,378
9.65,494
9.6517,519
9.6535,444
9.6552,359
9.657,296
9.6603,255
9.6621,251
9.6638,333
9.6655,458
9.6673,522
9.669,471
9.6724,382
9.6741,309
9.6758,262
9.6775,238
9.6793,291
9.681,411
9.6843,507
9.6861,491
9.6879,405
9.6897,323
9.6914,269
9.6931,233
9.6964,256
9.6981,361
9.6997,478
9.7015,504
9.7032,431
9.7064,345
9.7083,282
9.71,240
9.7118,235
9.7135,316
9.716,441
9.7183,506
9.7201,455
9.7219,366
9.7236,294
9.7253,246
9.727,221
9.7303,274
9.732,395
9.7334,491
9.7351,477
9.7369,391
9.7387,310
9.7422,255
9.7438,218
9.7456,239
9.7474,342
9.749,460
9.7507,486
9.7542,412
9.756,325
9.7578,262
9.7595,220
9.7613,215
9.7643,296
9.7659,421
9.7677,487
9.7694,436
9.7712,345
9.7746,271
9.7763,221
9.7779,195
9.7796,246
9.7811,365
9.7844,462
9.7862,449
9.788,363
9.7897,282
9.7915,227
9.7932,191
9.7963,211
9.7979,313
9.7995,431
9.8013,457
9.8031,383
9.8064,294
9.8083,231
9.8102,188
9.812,181
9.8137,261
9.8154,385
9.8172,452
9.8189,402
9.8223,312
9.824,242
9.8257,195
9.8275,171
9.8292,225
9.8309,346
9.8343,448
9.8361,437
9.8378,353
9.8396,275
9.8413,223
9.8431,191
9.8464,216
9.8482,322
9.8498,446
9.8516,478
9.8533,409
9.855,325
9.8583,267
9.8601,229
9.8617,227
9.8635,311
9.8652,439
9.8669,511
9.8703,464
9.872,378
9.8737,308
9.8755,263
9.8772,240
9.879,293
9.8823,415
9.8838,516
9.8856,504
9.8882,421
9.8902,342
9.8919,289
9.8936,254
9.8953,276
9.897,381
9.9002,499
9.902,528
9.9037,456
9.9054,371
9.9071,306
9.9103,264
9.9119,258
9.9136,337
9.9153,462
9.9168,530
9.9201,482
9.9216,393
9.9233,319
9.9251,272
9.9268,248
9.9302,299
9.9319,420
9.9335,521
9.9351,511
9.9384,426
9.9401,346
9.9418,290
9.9435,253
9.9452,273
9.9469,377
9.9501,495
9.9513,525
9.9544,452
9.9562,366
9.958,302
9.9599,260
9.9616,254
9.9633,334
9.965,459
9.9681,528
9.9694,481
9.9724,392
9.9742,317
9.9759,269
9.9776,244
9.9793,294
9.981,415
9.9843,515
9.9861,504
9.988,419
9.9897,338
9.9915,283
9.9932,248
9.9949,269
9.9983,374
9.9998,494
10.0016,525
10.0033,453
10.0051,367
10.0069,302
10.0103,260
10.012,253
10.0138,333
10.0155,458
10.0172,528
10.019,482
10.0226,394
10.0245,322
10.0267,274
10.0279,250
10.0298,299
10.0317,418
10.034,518
10.0351,509
10.0369,424
10.0404,345
10.0422,289
10.0443,254
10.0455,273
10.0472,377
10.0502,495
10.0522,527
10.054,457
10.0557,372
10.0575,307
10.0592,266
10.0609,259
10.0644,337
10.0662,462
10.068,532
10.0696,486
10.0714,397
10.0732,324
10.0749,277
10.0783,251
10.0802,300
10.0825,419
10.0835,518
10.0853,507
10.0871,421
10.0889,340
10.092,283
10.0938,247
10.0956,265
10.0974,368
10.1001,487
10.1025,521
10.1042,450
10.1059,364
10.1077,299
10.1094,257
10.112,248
10.1142,324
10.1159,447
10.1177,514
10.1194,466
10.1212,376
10.1246,300
10.126,251
10.1281,224
10.1291,271
10.1325,391
10.1342,493
10.1361,485
10.1379,400
10.1397,318
10.1414,263
10.1432,229
10.145,249
10.1483,354
10.1503,477
10.1513,512
10.153,443
10.1565,357
10.1583,292
10.1596,250
10.1627,242
10.1639,320
10.1656,447
10.1675,521
10.1691,478
10.1719,392
10.1741,319
10.1763,272
10.1776,246
10.1792,295
10.1809,415
10.1841,518
10.1857,512
10.1873,428
10.1889,348
10.1921,292
10.1933,254
10.1949,270
10.1983,372
10.2001,490
10.2019,524
10.2043,453
10.2053,368
10.207,302
10.2103,260
10.2119,251
10.2137,328
10.2154,453
10.2171,526
10.2189,482
10.2223,394
10.2245,320
10.2255,271
10.2272,244
10.2305,289
10.2325,403
10.2335,499
10.2353,483
10.2371,387
10.2388,291
10.2421,218
10.2436,158
10.2454,146
10.2471,212
10.2504,297
10.2522,302
10.2538,211
10.2554,111
10.2572,43
10.2589,9
10.2624,19
10.2641,123
10.2661,291
10.2672,434
10.269,460
10.2707,425
10.2745,382
10.2755,339
10.2772,305
10.2804,339
10.2824,440
10.2835,527
10.2851,510
10.2869,419
10.2903,334
10.2921,277
10.2939,241
10.2956,260
10.2984,363
10.2996,485
10.3024,522
10.3041,454
10.3052,369
10.3069,305
10.3103,264
10.3119,255
10.3135,330
10.3152,454
10.3168,528
10.3201,485
10.3218,396
10.3234,322
10.325,273
10.3283,247
10.33,293
10.3316,413
10.3332,516
10.3349,512
10.3382,428
10.3398,346
10.3416,288
10.3432,251
10.3449,266
10.3483,368
10.35,488
10.3518,524
10.3535,454
10.3551,367
10.3569,301
10.3601,257
10.3618,247
10.3635,321
10.3651,445
10.3684,518
10.3701,475
10.3718,387
10.3735,312
10.3751,264
10.3767,237
10.38,282
10.3816,398
10.3832,501
10.385,496
10.3883,411
10.3901,327
10.3918,270
10.3935,232
10.3951,247
10.3967,347
10.3999,468
10.4016,505
10.4033,435
10.4062,348
10.408,282
10.4098,239
10.4116,228
10.4132,301
10.4149,426
10.4182,501
10.42,459
10.4217,370
10.4239,294
10.4261,244
10.4278,214
10.4294,257
10.4311,374
10.4344,478
10.4362,475
10.4383,391
10.4393,308
10.4409,252
10.4442,214
10.4458,227
10.4475,325
10.4492,446
10.4508,484
10.4545,414
10.4559,325
10.4569,261
10.4603,217
10.4624,205
10.4635,276
10.4652,399
10.467,473
10.4702,430
10.4719,339
10.4719,266
10.4755,216
10.4755,188
10.4755,232
10.4755,347
10.4755,451
10.4859,446
10.488,360
10.488,276
10.4923,218
10.4923,179
10.4923,191
10.4923,289
10.4923,410
10.5012,449
10.5032,381
10.5056,294
10.5074,233
10.5097,193
10.5121,185
10.5131,262
10.5164,391
10.5179,471
10.5195,432
10.5211,345
10.5227,273
10.5247,226
10.5267,200
10.5287,247
10.5323,367
10.5323,476
10.5323,477
10.5323,397
10.5392,317
10.5413,263
10.5413,229
10.5413,247
10.5469,350
10.5493,475
10.5493,519
10.5493,454
10.5547,369
10.5547,304
10.5547,262
10.5547,252
10.5625,327
10.5664,453
10.5674,531
10.5674,491
10.5674,403
10.5674,329
10.5674,280
10.5783,253
10.5797,297
10.5797,414
10.5797,519
10.5797,518
10.5797,434
10.5797,353
10.5797,295
10.594,258
10.5951,272
10.5951,372
10.5989,493
10.6014,533
10.6014,465
10.6014,378
10.6014,311
10.6097,267
10.6097,255
10.6097,328
10.6097,454
10.6097,531
10.6189,492
10.621,404
10.623,328
10.6256,279
10.6256,250
10.6256,293
10.6315,410
10.6315,516
10.6349,515
10.6369,432
10.6389,350
10.641,290
10.643,251
10.645,263
10.647,362
10.649,483
10.651,525
10.6531,458
10.6551,371
10.6568,305
10.6589,261
10.6609,249
10.6629,321
10.6649,446
10.6669,524
10.6689,485
10.671,397
10.6727,322
10.6747,273
10.6767,246
10.6788,289
10.6808,407
10.6828,514
10.6828,516
10.6828,434
10.69,351
10.69,292
10.69,253
10.69,264
10.69,362
10.7002,483
10.7018,525
10.7038,458
10.7057,371
10.7083,304
10.7099,261
10.7115,250
10.7142,322
10.7159,447
10.7159,526
10.7159,488
10.7208,400
10.7208,325
10.7208,276
10.7208,248
10.7208,291
10.7208,408
10.7208,515
10.7208,515
10.7365,432
10.7365,349
10.7365,290
10.7365,251
10.7459,262
10.7459,360
10.7491,480
10.7522,523
10.7542,457
10.7562,372
10.7583,305
10.7583,262
10.7614,249
10.7634,320
10.7654,444
10.7674,524
10.7694,487
10.7714,399
10.7735,323
10.7755,274
10.7775,244
10.7795,284
10.7795,399
10.7833,503
10.7833,500
10.7833,415
10.7833,328
10.7924,269
10.7944,230
10.7964,242
10.7964,339
10.8004,462
10.802,505
10.804,439
10.806,351
10.808,283
10.81,240
10.812,228
10.8142,300
10.8166,427
10.8184,511
10.8196,477
10.8216,390
10.8226,315
10.8261,265
10.8274,236
10.8304,277
10.8304,393
10.8331,502
10.8351,506
10.8371,425
10.8371,343
10.8371,286
10.8435,248
10.8455,260
10.8476,359
10.8496,482
10.8516,528
10.8536,464
10.8554,378
10.8574,311
10.8594,266
10.8614,252
10.8614,322
10.8655,447
10.8669,527
10.8705,490
10.8705,401
10.8705,324
10.8757,274
10.8774,244
10.8795,284
10.8815,399
10.8835,506
10.8855,509
10.8875,427
10.8875,345
10.8906,287
10.8938,250
10.8958,260
10.8978,355
10.8998,471
10.9019,507
10.9039,430
10.9059,329
10.9083,247
10.9103,183
10.9123,144
10.9123,182
10.9163,271
10.9183,320
10.9203,258
10.9203,151
10.9241,66
10.9241,17
10.9241,0
10.9241,59
10.9241,206
10.9241,369
10.9241,441
10.9241,419
10.9402,378
10.9421,339
10.9437,302
10.9453,304
10.9469,387
10.95,493
10.9516,525
10.9536,452
10.9556,360
10.9576,292
10.9597,251
10.9597,240
10.9597,312
10.9646,439
10.9666,524
10.9666,491
10.9717,404
10.9737,329
10.9737,279
10.9737,249
10.9737,287
10.981,402
10.9836,510
10.9836,514
10.9873,432
10.9873,349
10.9921,290
10.9941,252
10.9961,262
10.9981,359
11.0001,481
11.0021,526
11.0032,462
11.0052,375
11.0072,307
11.0096,263
11.0116,247
11.0136,315
11.0157,439
11.0157,520
11.0192,485
11.0212,396
11.0212,319
11.0246,268
11.0246,239
11.0296,278
11.0325,394
11.0325,503
11.0345,508
11.0371,425
11.0391,339
11.042,278
11.044,236
11.046,244
11.048,339
11.0501,464
11.0521,511
11.0541,448
11.0561,361
11.0581,293
11.0601,249
11.0622,233
11.0642,300
11.0659,423
11.067,504
11.0691,469
11.0711,380
11.0731,303
11.0761,252
11.0782,221
11.0802,259
11.0819,374
11.084,484
11.086,488
11.088,406
11.09,321
11.092,262
11.0941,224
11.0961,232
11.0978,326
11.0999,448
11.1024,494
11.1024,429
11.1044,339
11.1064,271
11.1084,227
11.1125,212
11.1135,279
11.1155,404
11.1175,487
11.1196,452
11.1216,363
11.1236,285
11.1256,233
11.1276,201
11.1294,237
11.1319,349
11.1329,457
11.1359,462
11.1375,380
11.1393,296
11.141,239
11.1444,201
11.1461,210
11.1474,303
11.149,427
11.1509,474
11.1542,409
11.1558,319
11.1574,252
11.1591,206
11.1624,189
11.1638,255
11.1658,379
11.1668,464
11.1701,431
11.1717,343
11.1734,267
11.175,217
11.1782,186
11.1799,223
11.1815,337
11.1832,450
11.1848,461
11.1881,383
11.1897,302
11.1913,247
11.1929,212
11.1962,223
11.1978,319
11.1995,446
11.2012,498
11.2028,438
11.2061,352
11.2078,286
11.2094,245
11.211,232
11.2143,302
11.2163,429
11.2174,515
11.2191,484
11.2225,398
11.2242,323
11.2258,274
11.2275,245
11.2293,283
11.231,399
11.2345,511
11.2362,520
11.2383,440
11.2393,358
11.2411,298
11.2444,259
11.2455,266
11.2472,360
11.2507,482
11.2517,531
11.2535,469
11.2552,383
11.2586,315
11.2604,270
11.2618,254
11.2636,319
11.2654,442
11.2672,526
11.269,494
11.2726,406
11.2747,331
11.2757,280
11.2773,250
11.279,287
11.2808,401
11.2843,510
11.286,517
11.2876,435
11.2893,351
11.291,291
11.2927,252
11.2961,259
11.2977,352
11.2994,475
11.3011,524
11.3045,462
11.3063,373
11.3079,306
11.3096,262
11.3113,246
11.313,312
11.3165,436
11.3178,520
11.3189,488
11.3207,399
11.324,322
11.3258,271
11.3276,240
11.3293,276
11.3309,391
11.3344,502
11.3362,512
11.3378,432
11.3395,348
11.3412,288
11.3428,249
11.3462,255
11.3484,348
11.35,471
11.3511,522
11.3529,461
11.3564,374
11.3581,306
11.3598,262
11.3615,245
11.3632,310
11.365,434
11.3685,519
11.3703,488
11.372,400
11.3737,323
11.3754,273
11.3772,241
11.3803,276
11.382,390
11.3844,500
11.3863,510
11.388,432
11.3897,350
11.3914,292
11.393,254
11.3964,260
11.3981,353
11.3998,476
11.4016,526
11.4032,464
11.4049,375
11.4082,306
11.4098,261
11.4116,243
11.4134,308
11.4151,432
11.4168,518
11.4202,488
11.4218,401
11.4235,324
11.4251,273
11.4268,241
11.4301,276
11.4318,389
11.4335,499
11.4353,510
11.4369,430
11.4403,347
11.442,287
11.4437,248
11.4454,251
11.4471,340
11.4488,461
11.4521,509
11.4538,445
11.4558,355
11.4569,285
11.4603,241
11.4623,224
11.4633,288
11.465,412
11.4685,498
11.4701,470
11.4723,383
11.4733,306
11.475,256
11.4767,226
11.4801,263
11.4819,378
11.4837,491
11.4854,503
11.4881,424
11.4899,341
11.4917,281
11.4934,242
11.495,247
11.4984,340
11.5005,465
11.5015,519
11.5036,460
11.5064,373
11.5081,305
11.5099,261
11.5116,243
11.5134,307
11.5151,432
11.5168,519
11.5199,492
11.5216,404
11.5234,327
11.525,276
11.5285,245
11.5302,278
11.532,390
11.5337,501
11.5354,512
11.5369,431
11.5403,348
11.5419,287
11.5435,249
11.5451,254
11.5467,346
11.55,470
11.5516,523
11.5533,463
11.5549,375
11.5581,306
11.5597,259
11.5614,237
11.563,294
11.5662,408
11.5678,483
11.5695,438
11.5712,329
11.5728,227
11.576,144
11.5777,77
11.5793,75
11.581,156
11.5842,248
11.586,248
11.5877,167
11.5894,93
11.591,50
11.5926,37
11.596,88
11.5978,246
11.5996,438
11.6013,541
11.6036,509
11.6063,429
11.608,355
11.6097,296
11.6114,263
11.613,313
11.6158,427
11.6176,510
11.6193,480
11.621,394
11.6243,319
11.6259,271
11.6275,241
11.6292,277
11.632,391
11.6338,504
11.6355,517
11.6373,439
11.6391,355
11.6424,295
11.6439,255
11.6455,259
11.6482,350
11.6503,473
11.6521,527
11.6538,467
11.6555,378
11.6572,309
11.6589,263
11.6622,246
11.6639,309
11.6656,433
11.6673,521
11.669,494
11.6723,406
11.674,327
11.6757,274
11.6774,241
11.6791,273
11.6808,384
11.6842,497
11.6859,511
11.6875,432
11.6891,347
11.6908,286
11.694,245
11.6952,247
11.6981,337
11.6998,461
11.7015,515
11.7037,456
11.7048,368
11.7081,298
11.7098,252
11.7114,233
11.7131,296
11.7148,419
11.7181,508
11.7198,481
11.7215,391
11.7232,312
11.7248,260
11.728,228
11.729,259
11.7323,370
11.7341,482
11.7358,494
11.7374,414
11.7392,328
11.7409,268
11.7438,228
11.7456,231
11.7473,320
11.749,445
11.7525,501
11.7543,441
11.7557,352
11.7575,282
11.7593,236
11.761,216
11.7628,277
11.7663,400
11.768,489
11.7697,462
11.7714,374
11.7732,295
11.7748,241
11.7784,208
11.7801,238
11.7822,348
11.7832,461
11.7851,475
11.7885,395
11.7903,309
11.7921,249
11.7932,209
11.7948,210
11.7981,298
11.7998,422
11.8015,476
11.8042,417
11.8047,325
11.808,257
11.8097,210
11.8113,190
11.8129,252
11.8161,375
11.8178,466
11.8195,439
11.8212,350
11.8228,271
11.8257,218
11.8274,185
11.8291,215
11.8325,325
11.8343,440
11.8354,456
11.837,378
11.8404,293
11.8417,234
11.8434,196
11.8451,201
11.8468,292
11.8504,419
11.8514,479
11.8531,423
11.8548,337
11.8581,270
11.8599,227
11.8615,211
11.8633,275
11.8664,401
11.8681,495
11.8697,474
11.8714,391
11.8743,315
11.8756,264
11.8774,234
11.8791,267
11.8825,380
11.8843,495
11.886,513
11.8879,437
11.8895,355
11.8912,295
11.8929,256
11.8963,259
11.8979,348
11.8996,472
11.9012,529
11.9029,472
11.906,385
11.9077,315
11.9089,270
11.9122,250
11.9139,311
11.9157,435
11.9175,526
11.9192,503
11.921,417
11.9247,338
11.9274,285
11.9284,252
11.929,281
11.9325,391
11.934,504
11.9358,521
11.9376,443
11.9393,359
11.941,297
11.9444,257
11.9462,258
11.9479,347
11.9496,471
11.9514,529
11.953,472
11.9563,383
11.958,312
11.9597,265
11.9614,245
11.963,305
11.9663,428
11.968,521
11.9697,498
11.9713,412
11.973,333
11.9762,280
11.9778,246
11.9794,276
11.9811,386
11.9828,501
11.9862,519
11.9879,442
11.9896,358
11.9913,296
11.993,255
11.9964,257
11.9981,344
11.9998,468
12.0015,527
12.0041,470
12.0064,382
12.0076,311
12.0093,264
12.011,244
12.0143,304
12.016,427
12.0176,518
12.019,496
12.0224,410
12.0236,332
12.0252,279
12.0282,247
12.0299,275
12.0313,385
12.0328,499
12.0363,518
12.038,441
12.0395,357
12.0412,295
12.0429,255
12.0462,257
12.0479,344
12.0495,469
12.0512,528
12.0529,472
12.0562,384
12.0579,313
12.0595,267
12.0612,246
12.0629,305
12.066,428
12.0677,520
12.0694,499
12.071,412
12.0742,333
12.0758,280
12.0774,246
12.0791,275
12.0823,386
12.0839,501
12.0856,520
12.0873,443
12.089,359
12.0922,296
12.0939,255
12.0956,255
12.0973,342
12.0989,467
12.1022,526
12.1039,471
12.1055,382
12.1072,309
12.1088,260
12.1121,236
12.1139,291
12.1155,410
12.1172,500
12.1189,478
12.1222,390
12.1238,311
12.1255,258
12.1271,225
12.1288,252
12.1324,361
12.1335,476
12.1352,497
12.1369,422
12.1402,337
12.1418,277
12.1435,238
12.1451,239
12.1468,326
12.1501,452
12.1519,514
12.1536,460
12.1553,372
12.158,302
12.1601,257
12.1617,238
12.1643,298
12.1654,423
12.1681,518
12.1697,499
12.1714,413
12.173,334
12.1747,281
12.1779,248
12.1795,275
12.1814,384
12.1831,499
12.1849,520
12.1883,443
12.1899,359
12.1915,296
12.1931,255
12.1964,254
12.1981,340
12.1998,464
12.2015,524
12.2031,470
12.2063,381
12.208,309
12.2097,263
12.2113,242
12.213,299
12.2163,423
12.218,517
12.2197,498
12.2214,412
12.223,332
12.2263,276
12.2279,237
12.2297,255
12.2313,353
12.233,456
12.2364,460
12.2381,361
12.2398,246
12.2414,152
12.2431,76
12.2448,42
12.248,103
12.2497,211
12.2513,267
12.254,220
12.2556,146
12.2569,98
12.2602,87
12.2619,123
12.2636,249
12.2653,430
12.267,562
12.2705,560
12.2718,474
12.2736,384
12.2761,313
12.2778,263
12.28,276
12.2822,376
12.2839,488
12.2854,509
12.2871,435
12.2902,352
12.2919,291
12.2935,252
12.2952,252
12.2969,339
12.3003,466
12.302,529
12.3037,476
12.3053,388
12.3078,316
12.3095,269
12.3111,246
12.3128,303
12.3161,424
12.3178,520
12.3195,501
12.3211,415
12.3227,336
12.3262,282
12.3278,248
12.3295,272
12.3311,380
12.3328,495
12.3362,517
12.3379,441
12.339,355
12.3423,292
12.3439,251
12.3455,248
12.3471,332
12.3508,458
12.3518,522
12.3536,469
12.3553,380
12.357,308
12.3604,261
12.3621,238
12.3635,293
12.3665,414
12.3681,509
12.3698,491
12.3716,404
12.3733,323
12.375,270
12.3782,235
12.3798,259
12.3815,366
12.3845,482
12.3862,505
12.3879,429
12.3895,342
12.3912,279
12.3928,236
12.3962,233
12.3978,315
12.3994,440
12.4012,504
12.4028,452
12.4061,362
12.4076,289
12.4092,242
12.4108,218
12.4138,273
12.4155,394
12.4171,490
12.4189,472
12.4222,384
12.4238,302
12.4255,246
12.4271,211
12.4304,234
12.4323,340
12.4334,457
12.4351,481
12.4368,405
12.44,318
12.4416,256
12.4432,214
12.4448,211
12.4482,293
12.4499,417
12.4516,481
12.4533,428
12.4549,337
12.4582,265
12.4599,216
12.4619,192
12.4642,245
12.4659,365
12.4676,461
12.4693,443
12.471,356
12.4727,275
12.476,221
12.4776,186
12.4788,209
12.4821,314
12.4839,432
12.4856,456
12.4872,381
12.4888,293
12.492,231
12.4936,189
12.4953,185
12.4971,267
12.5005,393
12.5019,459
12.5036,409
12.5054,320
12.5071,252
12.5088,207
12.5122,187
12.5139,244
12.5156,369
12.5173,470
12.519,458
12.5208,375
12.5241,297
12.5259,245
12.5276,213
12.5292,240
12.5324,349
12.5341,470
12.5359,500
12.5376,429
12.5393,346
12.5411,286
12.5445,247
12.5463,246
12.548,330
12.5498,458
12.5516,525
12.5534,476
12.5551,389
12.5585,317
12.5602,271
12.562,248
12.5637,303
12.5665,425
12.5682,523
12.5704,509
12.5719,423
12.5735,343
12.5751,288
12.5768,253
12.5801,276
12.5817,383
12.5833,500
12.585,527
12.5884,453
12.5902,368
12.5924,303
12.5934,261
12.5952,257
12.597,339
12.6004,463
12.6022,529
12.604,478
12.6055,388
12.6072,315
12.6088,267
12.6121,243
12.6138,296
12.6155,417
12.6172,514
12.6201,499
12.6218,413
12.6235,333
12.6251,278
12.6267,243
12.6299,267
12.6315,373
12.6332,491
12.6349,519
12.6383,445
12.6399,361
12.6415,297
12.6431,255
12.6448,251
12.648,333
12.6496,458
12.6512,525
12.6528,476
12.6562,388
12.6578,315
12.6595,268
12.6611,244
12.6643,297
12.666,419
12.6676,517
12.6694,503
12.671,417
12.6742,337
12.6759,281
12.6776,246
12.6792,269
12.6823,375
12.684,493
12.6861,522
12.6871,448
12.6905,362
12.6921,298
12.6938,256
12.6956,251
12.6973,333
12.699,460
12.7024,528
12.704,480
12.7056,391
12.7072,318
12.7089,270
12.7122,246
12.7138,299
12.7154,420
12.7185,518
12.7202,505
12.7219,419
12.7236,339
12.7252,284
12.7268,248
12.7301,270
12.7317,376
12.7337,494
12.7364,523
12.7381,450
12.7398,364
12.7414,299
12.743,257
12.7462,252
12.7479,332
12.7499,458
12.7509,527
12.7543,478
12.7559,388
12.7576,315
12.7594,267
12.7611,242
12.7628,293
12.7665,413
12.7675,511
12.7705,499
12.7722,413
12.7743,332
12.7753,277
12.777,242
12.7804,263
12.7825,368
12.7835,483
12.7853,509
12.787,433
12.7904,342
12.7921,276
12.7938,233
12.7955,227
12.7984,307
12.8005,433
12.8016,501
12.8033,452
12.8055,364
12.8082,290
12.8099,243
12.8116,220
12.8133,273
12.815,395
12.8184,497
12.82,487
12.8217,402
12.8234,322
12.825,267
12.8267,232
12.8299,254
12.8315,360
12.8332,481
12.8349,513
12.8381,442
12.8397,357
12.8413,294
12.8429,253
12.8461,248
12.8477,329
12.8494,456
12.8511,526
12.8544,479
12.8561,389
12.8577,316
12.8594,268
12.861,243
12.8644,294
12.8654,415
12.8668,515
12.8702,504
12.8719,419
12.8736,338
12.8753,282
12.8771,246
12.8804,266
12.8821,371
12.8843,490
12.8853,521
12.887,448
12.8903,362
12.8919,297
12.8932,256
12.8949,250
12.8982,329
12.8999,452
12.9016,516
12.903,459
12.9062,358
12.9078,270
12.9098,204
12.9126,156
12.9139,178
12.916,264
12.917,334
12.9188,296
12.9223,190
12.9239,95
12.9256,31
12.9273,0
12.9289,33
12.9322,160
12.9338,319
12.9355,417
12.9372,413
12.9388,380
12.9421,346
12.9438,312
12.945,300
12.9467,368
12.95,476
12.9517,531
12.9534,473
12.955,377
12.9567,300
12.96,252
12.9617,229
12.9634,282
12.9651,406
12.9684,511
12.9701,504
12.9716,420
12.9732,340
12.9748,284
12.9782,248
12.9798,268
12.9815,372
12.9831,491
12.9848,523
12.9882,451
12.9899,364
12.9915,299
12.9945,256
12.9963,249
12.9979,329
12.9996,456
13.0008,527
13.0041,480
13.0057,390
13.0075,316
13.0092,267
13.0126,242
13.0143,292
13.016,412
13.0182,512
13.0192,503
13.021,417
13.0245,333
13.0255,276
13.0272,239
13.029,257
13.0325,361
13.0338,480
13.0356,512
13.0373,441
13.0395,354
13.0425,288
13.0443,246
13.046,239
13.0477,317
13.0493,443
13.0511,514
13.0529,468
13.0565,377
13.0583,301
13.0602,252
13.0612,225
13.0646,273
13.0663,393
13.0681,494
13.0698,485
13.0724,399
13.0738,317
13.0755,260
13.0783,223
13.0798,241
13.0819,344
13.0835,464
13.0861,497
13.0883,425
13.0899,335
13.0916,269
13.0932,225
13.0949,216
13.0982,293
13.0998,419
13.1015,490
13.1032,444
13.1065,354
13.1083,279
13.1099,229
13.1116,202
13.1132,250
13.1148,369
13.1181,470
13.1198,461
13.1214,374
13.123,291
13.1247,234
13.1279,196
13.1295,213
13.1311,314
13.1345,435
13.1361,467
13.1379,395
13.1396,305
13.1413,240
13.1429,196
13.1463,187
13.1479,264
13.1495,389
13.1512,461
13.1541,416
13.1558,324
13.1574,251
13.1591,201
13.1623,174
13.1639,222
13.1655,340
13.1672,444
13.1689,436
13.1723,351
13.174,269
13.1757,214
13.1774,178
13.1791,197
13.1824,301
13.184,426
13.1856,464
13.1884,396
13.1902,310
13.1919,249
13.1936,209
13.1952,204
13.197,284
13.2004,415
13.2014,492
13.203,451
13.2062,366
13.208,294
13.2096,249
13.2112,225
13.2129,277
13.2161,400
13.2176,506
13.2188,502
13.2224,420
13.2234,339
13.2251,284
13.2284,249
13.2294,267
13.2311,372
13.2345,493
13.2362,528
13.2383,459
13.2393,373
13.2411,306
13.2428,263
13.2459,254
13.2476,331
13.2496,458
13.2523,531
13.2541,487
13.2557,398
13.2574,324
13.259,274
13.2621,247
13.2637,295
13.2658,415
13.2668,518
13.2703,512
13.272,427
13.2738,346
13.2755,289
13.2784,252
13.28,269
13.2828,371
13.2833,491
13.2851,526
13.2883,456
13.2899,369
13.2915,302
13.293,260
13.2964,252
13.2985,329
13.2995,455
13.3014,529
13.3032,485
13.3051,396
13.3084,321
13.3102,272
13.312,245
13.3142,292
13.3153,411
13.3185,515
13.3199,509
13.3216,424
13.3233,342
13.325,285
13.3284,248
13.3302,265
13.3323,368
13.3336,489
13.3349,526
13.3384,457
13.3405,370
13.3416,303
13.3446,260
13.3463,250
13.3485,326
13.3496,453
13.3514,529
13.3545,486
13.3562,397
13.358,323
13.3597,274
13.3618,247
13.3645,294
13.3666,413
13.3676,517
13.3694,513
13.371,428
13.3727,345
13.3762,287
13.3779,250
13.3797,266
13.3814,368
13.3845,489
13.3862,527
13.3879,458
13.3896,371
13.3914,304
13.3931,261
13.3962,251
13.3979,328
13.3996,454
13.4013,530
13.403,488
13.4064,399
13.4081,324
13.4094,274
13.4111,247
13.4129,293
13.4161,413
13.4183,517
13.4193,513
13.4209,429
13.4242,348
13.426,290
13.4278,254
13.4297,270
13.4315,371
13.4331,491
13.4349,528
13.4383,458
13.4401,370
13.4419,303
13.4437,260
13.4454,250
13.4487,324
13.4504,450
13.4526,524
13.4537,482
13.4564,392
13.4584,317
13.4603,268
13.4615,241
13.464,286
13.4661,404
13.4678,507
13.4706,502
13.4723,415
13.4734,329
13.4751,269
13.4768,229
13.4803,243
13.482,343
13.4836,466
13.4854,503
13.4873,434
13.4891,345
13.4908,279
13.4943,236
13.4959,228
13.4977,304
13.4994,433
13.5012,511
13.503,471
13.5047,382
13.5081,308
13.5097,259
13.5114,233
13.5131,279
13.5165,398
13.5178,505
13.5195,502
13.5212,420
13.5229,339
13.5263,283
13.5283,248
13.5293,265
13.531,368
13.5346,490
13.5356,529
13.5374,460
13.5404,372
13.5425,305
13.5435,261
13.5464,250
13.5477,324
13.549,451
13.5523,527
13.5537,486
13.556,397
13.5578,322
13.5595,272
13.5612,244
13.5629,288
13.5664,407
13.5687,512
13.5704,509
13.5724,425
13.5743,343
13.5764,285
13.5774,248
13.5791,262
13.5826,364
13.5847,484
13.5858,519
13.5884,445
13.5905,349
13.5924,272
13.5929,215
13.5947,188
13.598,240
13.6,338
13.601,385
13.6045,309
13.6062,191
13.6078,95
13.6094,29
13.6111,0
13.6128,44
13.6165,174
13.6175,302
13.6193,339
13.6209,314
13.6243,300
13.626,297
13.6276,292
13.6293,319
13.631,417
13.6344,526
13.6362,550
13.6378,467
13.6394,367
13.641,292
13.6426,244
13.646,232
13.6476,308
13.6506,437
13.6523,518
13.6536,481
13.6553,394
13.6569,319
13.6601,270
13.6617,243
13.6633,287
13.6649,406
13.6686,512
13.6703,509
13.672,425
13.6736,342
13.6753,284
13.6769,246
13.6802,261
13.6823,361
13.6833,482
13.685,522
13.6883,454
13.6899,367
13.6916,299
13.6932,255
13.695,243
13.6981,316
13.6997,442
13.7015,520
13.7032,480
13.7049,390
13.7076,313
13.7093,263
13.7109,235
13.7142,278
13.7164,395
13.7174,502
13.7192,500
13.721,416
13.7228,333
13.7261,275
13.7278,237
13.7294,249
13.7311,348
13.7345,470
13.7363,510
13.738,442
13.7399,353
13.7416,285
13.7433,241
13.7463,228
13.748,301
13.7497,426
13.7516,505
13.7533,466
13.755,377
13.7584,301
13.7596,250
13.7613,221
13.763,263
13.7662,380
13.768,486
13.7698,486
13.7714,402
13.7731,317
13.7748,259
13.7783,220
13.78,232
13.7817,330
13.7839,453
13.7849,495
13.7885,427
13.7895,337
13.7912,270
13.7945,224
13.7965,211
13.7975,282
13.8006,406
13.8024,484
13.8037,444
13.8058,353
13.8079,276
13.8103,225
13.8117,195
13.8133,238
13.8168,354
13.8186,461
13.82,460
13.8218,375
13.8231,290
13.8249,231
13.8283,191
13.8296,203
13.8325,299
13.8342,422
13.8364,464
13.8377,396
13.8404,305
13.8422,239
13.8438,194
13.8456,180
13.8473,252
13.849,377
13.8507,457
13.8542,419
13.8556,328
13.8574,253
13.8592,204
13.8609,175
13.8643,219
13.866,336
13.8676,447
13.8695,450
13.8712,368
13.8729,287
13.8761,232
13.8779,196
13.8796,211
13.8813,311
13.8831,439
13.8863,485
13.888,422
13.8898,337
13.8915,273
13.8932,233
13.895,223
13.8967,298
13.9001,426
13.9019,510
13.9037,476
13.9055,390
13.9083,317
13.9089,269
13.9124,241
13.9141,284
13.9159,402
13.918,510
13.919,513
13.9208,431
13.9241,349
13.9258,290
13.9275,252
13.9293,264
13.931,364
13.9345,487
13.9356,532
13.9374,466
13.9392,379
13.941,311
13.9445,267
13.9458,254
13.9476,325
13.9491,450
13.9526,530
13.954,493
13.9556,404
13.9574,328
13.9591,277
13.9608,247
13.9641,289
13.9658,407
13.9676,515
13.9693,517
13.9711,434
13.9728,352
13.9762,292
13.9779,253
13.9796,263
13.981,360
13.9845,482
13.9858,525
13.9875,460
13.9892,373
13.9909,305
13.9943,261
13.9961,249
13.9978,319
13.9995,445
14.0013,527
14.003,491
14.0064,402
14.0082,325
14.0098,275
14.0115,246
14.013,286
14.0164,403
14.0182,511
14.02,515
14.0217,433
14.0234,350
14.0252,292
14.0269,253
14.0303,264
14.0325,362
14.0335,484
14.0364,529
14.0385,464
14.0396,375
14.0413,307
14.0445,263
14.0462,249
14.048,320
14.0493,446
14.051,529
14.0545,494
14.0555,406
14.0585,330
14.0597,279
14.0614,249
14.0631,289
14.0665,405
14.0682,513
14.0693,515
14.0711,434
14.0745,351
14.0763,292
14.0777,254
14.0794,265
14.0812,363
14.0843,486
14.0861,533
14.0879,468
14.0895,380
14.0922,312
14.0939,267
14.0955,252
14.0972,321
14.099,446
14.1026,528
14.1044,493
14.1061,403
14.1078,326
14.1095,275
14.1112,245
14.1129,285
14.1167,402
14.1182,511
14.1206,515
14.1228,432
14.1241,348
14.1252,288
14.1284,250
14.1304,260
14.1314,356
14.1345,479
14.1364,524
14.1374,459
14.1399,371
14.1416,303
14.1434,259
14.1452,244
14.1469,314
14.1505,439
14.1516,521
14.1533,485
14.1561,394
14.1574,314
14.159,260
14.1623,227
14.1641,264
14.1658,379
14.1676,487
14.1694,490
14.1711,408
14.1728,323
14.1761,264
14.1777,226
14.1793,236
14.1811,334
14.1846,460
14.1859,508
14.188,445
14.189,359
14.1923,291
14.194,248
14.1956,235
14.1973,305
14.199,432
14.2025,516
14.2039,482
14.2049,394
14.208,318
14.2096,269
14.2113,241
14.2129,282
14.2161,400
14.2179,511
14.2196,517
14.221,435
14.2241,353
14.2257,293
14.2273,254
14.2291,262
14.2324,358
14.2335,480
14.235,528
14.2384,465
14.24,378
14.2418,309
14.2434,264
14.245,249
14.2483,317
14.2504,442
14.2514,524
14.2531,489
14.2548,400
14.2582,322
14.2599,271
14.2615,241
14.2631,280
14.2664,397
14.2682,506
14.2699,511
14.2716,426
14.2733,335
14.2749,268
14.2782,219
14.2799,215
14.2816,293
14.2841,396
14.2858,417
14.2876,320
14.2894,200
14.2912,103
14.2929,35
14.2965,1
14.2982,61
14.3001,189
14.3025,290
14.3045,281
14.3055,228
14.3072,209
14.3105,226
14.3119,253
14.3137,327
14.3155,458
14.3186,567
14.3202,563
14.3218,467
14.3234,367
14.326,293
14.3281,244
14.3297,247
14.3314,341
14.3331,466
14.3348,517
14.3381,457
14.3397,372
14.3413,306
14.3429,262
14.3464,247
14.3482,315
14.3504,441
14.3517,525
14.3527,492
14.3562,404
14.3579,328
14.3596,277
14.3613,247
14.3629,283
14.3666,398
14.3679,508
14.3689,513
14.3723,431
14.3739,347
14.3756,286
14.3773,247
14.3789,256
14.3824,352
14.3845,476
14.3855,526
14.3871,463
14.3888,374
14.3921,305
14.3938,260
14.3955,243
14.3972,310
14.3988,435
14.4023,518
14.404,485
14.4057,396
14.4073,318
14.4094,267
14.4121,236
14.4139,273
14.4155,387
14.4171,497
14.4189,504
14.4222,423
14.4239,338
14.4256,278
14.4272,238
14.4303,245
14.4319,339
14.4336,463
14.4354,512
14.437,448
14.4404,359
14.4421,289
14.4438,242
14.4456,225
14.4474,290
14.449,413
14.4525,498
14.4536,465
14.4553,376
14.4587,298
14.4604,247
14.4615,216
14.4631,252
14.4663,365
14.4679,474
14.4703,481
14.4718,398
14.4734,311
14.475,252
14.4784,212
14.4801,218
14.4818,311
14.4838,437
14.4864,487
14.4864,424
14.49,335
14.491,266
14.4943,220
14.4961,202
14.4978,267
14.5003,390
14.5026,474
14.5044,442
14.5057,352
14.5074,274
14.5096,223
14.5123,191
14.5139,227
14.516,340
14.5187,452
14.5202,459
14.522,377
14.5238,290
14.5259,229
14.5286,187
14.5303,193
14.5326,284
14.5341,408
14.5365,458
14.5386,395
14.5397,305
14.5413,238
14.5431,194
14.5465,177
14.5485,243
14.5509,368
14.5524,456
14.5538,426
14.5554,339
14.557,265
14.5604,216
14.562,187
14.5636,225
14.5653,339
14.5671,455
14.5688,468
14.5723,391
14.574,310
14.5757,255
14.5774,219
14.5791,229
14.5809,325
14.5843,454
14.5861,508
14.5877,449
14.5894,362
14.5911,295
14.5943,253
14.5961,239
14.5978,309
14.5995,436
14.6012,525
14.6045,497
14.6061,411
14.6079,336
14.61,285
14.6115,255
14.6132,290
14.6161,403
14.6182,514
14.6198,523
14.6214,443
14.6236,360
14.6262,299
14.6279,259
14.6296,264
14.6312,357
14.6342,479
14.6363,531
14.6373,470
14.6389,383
14.6441,315
14.6441,270
14.6465,254
14.6482,320
14.6506,445
14.6524,531
14.6541,500
14.6558,412
14.6575,334
14.6593,282
14.6611,252
14.6645,287
14.6666,401
14.6676,512
14.6694,523
14.6711,441
14.6742,356
14.6759,294
14.6775,253
14.6791,259
14.6824,351
14.6844,475
14.6855,527
14.6871,467
14.6888,379
14.6922,311
14.6939,266
14.6956,249
14.6972,313
14.7005,438
14.7023,524
14.7035,495
14.7051,407
14.7068,329
14.71,277
14.7115,245
14.7132,278
14.7149,391
14.718,502
14.7198,515
14.7216,437
14.7234,355
14.7252,296
14.727,257
14.7288,261
14.7322,353
14.7339,476
14.7356,528
14.7375,468
14.7392,380
14.741,310
14.7445,266
14.7462,249
14.7479,314
14.7496,439
14.7523,528
14.7528,500
14.7563,413
14.7581,335
14.7599,283
14.7616,251
14.7634,284
14.7651,398
14.768,509
14.7703,520
14.7725,439
14.7735,354
14.7752,292
14.7769,252
14.7802,258
14.782,351
14.7841,476
14.7862,530
14.7872,469
14.7889,381
14.7925,310
14.7943,265
14.7961,247
14.7979,311
14.7996,436
14.8014,525
14.8032,497
14.8066,410
14.8083,331
14.81,279
14.8117,246
14.8134,280
14.8158,392
14.8184,504
14.82,515
14.8217,435
14.8233,350
14.825,290
14.8283,250
14.83,255
14.8317,347
14.8333,470
14.8351,522
14.8368,460
14.8403,368
14.842,295
14.8436,247
14.8454,227
14.8469,291
14.8506,415
14.8517,504
14.8535,476
14.8553,388
14.8569,310
14.8604,258
14.8624,226
14.8647,258
14.8664,371
14.8678,484
14.8696,499
14.8714,422
14.8733,340
14.8767,281
14.8781,243
14.8805,247
14.8816,336
14.8833,461
14.8866,516
14.888,458
14.8899,372
14.8916,304
14.8934,262
14.8951,245
14.8969,308
14.9005,432
14.9019,520
14.9047,493
14.906,406
14.9077,329
14.9094,279
14.9113,247
14.9146,280
14.9156,393
14.9177,505
14.9188,519
14.9224,440
14.9241,355
14.9262,291
14.9273,249
14.929,251
14.9307,340
14.9346,465
14.9356,520
14.9373,462
14.939,374
14.9423,303
14.9437,258
14.9455,239
14.9475,302
14.9502,426
14.9512,515
14.9543,485
14.9565,391
14.9575,302
14.9607,238
14.9625,190
14.9643,203
14.9665,289
14.9679,375
14.9689,358
14.9707,245
14.9744,133
14.9754,50
14.9771,0
14.9788,0
14.9823,87
14.9844,223
14.9854,306
14.9871,291
14.9889,267
14.9923,267
14.994,276
14.9957,289
14.9974,366
15.0005,485
15.0023,563
15.004,522
15.0056,420
15.0085,331
15.0099,271
15.0114,235
15.0143,265
15.0164,377
15.0184,492
15.0189,510
15.0207,434
15.024,352
15.0257,293
15.0274,255
15.0302,259
15.0318,350
15.0332,474
15.035,531
15.0384,474
15.0398,386
15.0415,315
15.0432,270
15.0449,251
15.0482,312
15.0498,435
15.0516,525
15.0534,499
15.055,411
15.0583,333
15.06,280
15.0618,246
15.0635,275
15.0652,385
15.0683,497
15.0701,512
15.0718,434
15.0735,350
15.0752,289
15.077,249
15.0803,251
15.0819,339
15.0835,462
15.0853,518
15.087,460
15.0905,371
15.0921,300
15.0938,254
15.095,234
15.0984,293
15.1002,415
15.1015,505
15.1032,480
15.1048,392
15.1081,312
15.1099,259
15.1116,226
15.1133,257
15.115,368
15.1187,481
15.12,496
15.1211,417
15.1245,330
15.1263,269
15.128,227
15.13,228
15.1326,316
15.1344,441
15.1362,500
15.1377,443
15.1394,355
15.1411,285
15.1446,238
15.1456,218
15.1473,277
15.149,398
15.153,488
15.154,464
15.1557,376
15.1573,297
15.1604,245
15.1618,212
15.1636,241
15.167,350
15.1684,463
15.1694,478
15.1712,398
15.1747,310
15.1768,250
15.1778,209
15.1796,211
15.1813,298
15.1847,424
15.1861,481
15.1884,422
15.1902,331
15.1916,260
15.1934,213
15.1952,192
15.1969,251
15.2005,373
15.2019,464
15.2046,441
15.2063,353
15.2081,273
15.2091,219
15.2124,184
15.2145,212
15.2155,320
15.218,436
15.22,454
15.2222,376
15.2233,289
15.2251,229
15.2286,188
15.2305,189
15.2316,277
15.2351,404
15.2366,464
15.2385,410
15.2399,322
15.2423,256
15.244,213
15.245,195
15.2468,256
15.2505,381
15.2519,477
15.2547,458
15.2557,373
15.2575,297
15.2591,247
15.2608,216
15.2642,248
15.2662,361
15.2686,480
15.2701,503
15.2719,430
15.2735,349
15.2765,289
15.2777,250
15.2805,253
15.2819,343
15.2846,469
15.2864,529
15.2869,473
15.2903,384
15.2921,313
15.2938,268
15.2954,248
15.2971,308
15.3005,432
15.3016,526
15.3033,505
15.3051,419
15.3068,340
15.3103,287
15.3119,253
15.3133,281
15.3151,390
15.3169,503
15.3203,521
15.3219,443
15.3235,358
15.3251,296
15.3267,257
15.3301,258
15.3319,346
15.3339,470
15.3349,529
15.3367,473
15.3401,384
15.3418,312
15.3434,265
15.3452,245
15.3486,304
15.3499,427
15.352,520
15.3531,498
15.3548,410
15.3583,329
15.3605,275
15.3615,240
15.3633,269
15.3666,380
15.3677,497
15.3694,518
15.3727,441
15.3738,357
15.3756,293
15.3773,252
15.3789,251
15.3823,335
15.3842,460
15.3852,520
15.387,467
15.3905,379
15.3915,309
15.3933,264
15.3951,243
15.3986,301
15.4,422
15.4018,514
15.4035,494
15.4052,408
15.4069,330
15.4103,278
15.4118,245
15.4135,274
15.4151,383
15.4168,498
15.4186,517
15.4221,440
15.4238,356
15.4255,294
15.4271,254
15.4288,254
15.4325,340
15.4335,465
15.4352,526
15.4369,473
15.4402,386
15.4419,316
15.4435,269
15.4451,247
15.4467,304
15.4505,426
15.4515,518
15.4532,498
15.4548,412
15.4581,332
15.4598,280
15.4614,247
15.463,274
15.4664,384
15.4685,499
15.4699,521
15.4709,444
15.4743,361
15.4759,299
15.4776,259
15.4792,258
15.481,344
15.4827,468
15.4861,529
15.4879,474
15.4895,386
15.4912,315
15.4928,268
15.4962,245
15.4979,301
15.4995,423
15.5012,517
15.5029,499
15.5061,413
15.5078,334
15.5095,279
15.5112,243
15.513,265
15.5163,369
15.5181,480
15.5198,499
15.5215,422
15.5233,337
15.525,277
15.5284,237
15.5299,236
15.5316,320
15.5332,445
15.5363,506
15.5385,452
15.5395,363
15.5411,292
15.5443,247
15.546,227
15.5477,285
15.5494,408
15.5511,504
15.5528,486
15.5562,400
15.5579,322
15.5595,270
15.5613,238
15.563,266
15.5658,375
15.5674,492
15.5692,515
15.5721,439
15.5738,355
15.5755,293
15.5773,254
15.579,254
15.5822,340
15.5844,465
15.5855,528
15.5873,475
15.589,387
15.5917,315
15.5934,269
15.5951,247
15.5968,303
15.6007,425
15.6017,518
15.6034,499
15.6051,412
15.6083,332
15.6095,279
15.6115,244
15.6132,270
15.6149,378
15.6183,494
15.6194,518
15.621,444
15.6228,359
15.6259,294
15.6276,250
15.6292,242
15.6309,316
15.6347,431
15.6357,480
15.6375,409
15.6392,297
15.6408,201
15.6444,123
15.646,66
15.6478,89
15.6494,185
15.6512,265
15.653,240
15.6563,159
15.6583,95
15.6594,63
15.661,63
15.6628,143
15.666,315
15.6679,493
15.6696,556
15.6713,500
15.673,417
15.6764,345
15.6781,288
15.6798,271
15.6815,343
15.6832,459
15.6865,519
15.6882,466
15.6895,380
15.6912,312
15.6929,267
15.6964,247
15.698,304
15.7006,427
15.7011,523
15.7029,506
15.7062,421
15.7079,342
15.7096,288
15.7118,254
15.7128,279
15.7162,385
15.7184,500
15.7195,524
15.7212,448
15.723,363
15.7247,299
15.7281,258
15.7303,254
15.7319,336
15.7335,461
15.7361,525
15.7374,474
15.7391,386
15.7407,314
15.7441,266
15.7457,244
15.7475,299
15.7493,420
15.751,516
15.7528,499
15.7562,411
15.7582,329
15.7592,274
15.7609,238
15.7643,262
15.766,368
15.7681,485
15.7691,508
15.7709,432
15.7744,346
15.7754,283
15.7771,242
15.7788,239
15.7825,321
15.7848,447
15.7862,512
15.7879,459
15.7898,369
15.7915,296
15.7932,249
15.7949,225
15.7983,279
15.8,401
15.8018,497
15.8036,481
15.8053,394
15.8069,313
15.8102,258
15.8118,223
15.8135,246
15.8152,352
15.8169,469
15.8203,494
15.822,418
15.8237,330
15.8254,268
15.8271,227
15.8288,223
15.8321,304
15.8338,428
15.8356,492
15.8374,440
15.8391,352
15.8424,281
15.844,235
15.8457,212
15.8475,265
15.8491,385
15.8525,481
15.8543,465
15.8564,377
15.8575,296
15.8591,241
15.8623,205
15.8638,228
15.8655,332
15.8685,450
15.8705,475
15.8715,399
15.8731,312
15.8747,250
15.8782,207
15.8804,202
15.8815,283
15.8831,408
15.8863,473
15.8883,421
15.8894,331
15.8911,261
15.8943,214
15.8961,191
15.8978,244
15.9012,365
15.9022,462
15.9037,447
15.9054,361
15.9071,282
15.9089,230
15.9126,197
15.9136,221
15.9153,327
15.9171,448
15.9205,478
15.9222,406
15.924,321
15.9257,261
15.9275,221
15.9291,219
15.9324,302
15.9342,430
15.936,499
15.9378,453
15.9394,368
15.941,300
15.9441,257
15.9457,237
15.9473,292
15.9506,415
15.9523,513
15.9539,500
15.9556,416
15.9572,338
15.9589,285
15.9621,251
15.9637,274
15.9654,380
15.967,496
15.9704,522
15.972,447
15.9737,361
15.9754,297
15.9771,257
15.9804,254
15.9824,336
15.9844,462
15.9849,530
15.9883,480
15.9901,392
15.9914,319
15.993,272
15.9964,247
15.998,299
15.9997,420
16.0015,518
16.0032,504
16.0049,419
16.0082,340
16.0099,285
16.0115,250
16.0138,272
16.0155,377
16.0181,493
16.0189,522
16.0222,447
16.0239,361
16.0257,295
16.0274,253
16.0303,249
16.0318,330
16.0335,456
16.0353,525
16.0371,476
16.0388,387
16.0421,313
16.0439,265
16.0456,240
16.0472,291
16.049,412
16.0509,511
16.0527,498
16.0558,413
16.0577,333
16.0595,279
16.0612,245
16.063,267
16.0665,372
16.0679,490
16.0696,519
16.0725,445
16.074,359
16.0758,294
16.0775,253
16.0793,248
16.0827,329
16.0844,455
16.0865,523
16.0876,475
16.0893,387
16.0909,314
16.0943,266
16.096,241
16.0977,293
16.0994,413
16.1018,513
16.1028,501
16.1062,416
16.1084,336
16.1095,280
16.1113,245
16.1146,266
16.116,371
16.1181,490
16.1191,520
16.1225,447
16.1235,361
16.1251,296
16.1287,255
16.1305,249
16.1318,330
16.1346,455
16.1364,524
16.1387,477
16.1405,388
16.141,315
16.1445,267
16.1467,242
16.1477,293
16.1494,413
16.1523,513
16.1523,501
16.1558,416
16.1558,335
16.1592,281
16.1622,245
16.1642,264
16.1642,368
16.1671,486
16.1691,517
16.1725,444
16.1745,359
16.1765,295
16.1783,252
16.1803,245
16.1803,322
16.1838,445
16.1859,511
16.1859,461
16.1859,370
16.1859,296
16.1941,247
16.1959,222
16.1979,272
16.2,392
16.2,492
16.2,481
16.2052,396
16.2072,316
16.2093,263
16.2128,228
16.2128,250
16.2162,355
16.2183,474
16.2203,505
16.2223,434
16.2223,348
16.2253,284
16.2273,243
16.2293,238
16.2314,318
16.2334,446
16.2355,518
16.2355,473
16.2355,386
16.2426,314
16.2447,267
16.2447,243
16.247,294
16.2499,413
16.2519,514
16.2519,503
16.2549,419
16.257,339
16.257,283
16.257,247
16.257,266
16.257,370
16.2672,488
16.2672,519
16.2726,447
16.2726,362
16.2726,297
16.2726,255
16.2795,249
16.2795,327
16.2835,452
16.2855,522
16.2887,476
16.2887,387
16.2887,314
16.2887,267
16.295,241
16.297,288
16.299,403
16.3011,496
16.3031,476
16.3057,378
16.3075,280
16.3102,204
16.3114,140
16.3129,124
16.3149,188
16.3176,272
16.3198,278
16.3218,188
16.3238,92
16.326,30
16.3278,0
16.3298,15
16.3318,127
16.3339,309
16.3365,453
16.3365,468
16.3386,418
16.3406,364
16.3436,316
16.3456,282
16.3476,318
16.3497,423
16.3517,513
16.3537,497
16.3557,409
16.3578,328
16.3595,274
16.3615,241
16.3635,262
16.3656,367
16.3676,487
16.3696,522
16.3696,452
16.3743,366
16.3754,301
16.3774,259
16.3794,252
16.3814,330
16.3835,456
16.3855,528
16.3875,482
16.3895,393
16.3924,319
16.3941,270
16.3953,244
16.3969,291
16.4,410
16.4,510
16.4031,502
16.4031,417
16.407,336
16.407,280
16.407,244
16.4128,261
16.4128,364
16.4182,483
16.4182,516
16.4182,445
16.423,359
16.423,294
16.423,252
16.423,243
16.4311,319
16.4337,444
16.4337,517
16.4378,472
16.4397,383
16.4397,309
16.4397,259
16.4397,232
16.4397,279
16.4504,396
16.4504,497
16.4504,488
16.4549,404
16.4549,323
16.4549,268
16.4617,232
16.4617,250
16.4657,351
16.4685,469
16.4685,503
16.4723,431
16.4723,344
16.4723,279
16.4779,236
16.4795,227
16.4811,303
16.4843,428
16.4859,501
16.4876,456
16.4876,367
16.4876,292
16.4876,243
16.4876,216
16.4876,262
16.4876,380
16.5024,482
16.5024,474
16.5046,389
16.5068,307
16.5068,251
16.5068,213
16.5128,229
16.5128,330
16.5171,450
16.5171,485
16.5171,414
16.5171,325
16.5171,261
16.5171,218
16.5171,208
16.5171,284
16.5329,409
16.5329,482
16.5329,437
16.5329,347
16.5329,272
16.5329,223
16.5329,195
16.5329,242
16.549,360
16.551,462
16.551,455
16.551,369
16.551,286
16.551,229
16.551,192
16.551,209
16.565,309
16.565,430
16.565,466
16.565,396
16.565,309
16.565,246
16.565,204
16.565,196
16.5809,273
16.5809,400
16.5809,476
16.5809,435
16.5809,347
16.5809,276
16.5809,230
16.5809,205
16.5966,254
16.5966,375
16.5966,482
16.5966,479
16.5966,397
16.6079,318
16.6099,265
16.612,231
16.6136,250
16.616,354
16.618,478
16.6201,516
16.6201,449
16.6201,364
16.6201,300
16.6283,258
16.6283,249
16.6326,325
16.6337,450
16.6353,524
16.6369,482
16.64,394
16.6417,321
16.6443,273
16.6443,247
16.6443,294
16.6443,412
16.6443,516
16.6443,511
16.6443,426
16.6443,344
16.6601,286
16.6601,249
16.6601,264
16.6601,365
16.6601,485
16.6601,522
16.6717,453
16.6717,366
16.6761,300
16.6761,257
16.6761,247
16.6761,321
16.6761,447
16.6761,523
16.6761,481
16.6761,393
16.6918,318
16.6918,269
16.6918,242
16.6918,287
16.6918,405
16.6918,508
16.6918,504
16.6918,419
16.7077,338
16.7077,281
16.7077,245
16.7131,260
16.7131,361
16.7131,482
16.7131,520
16.7131,452
16.7235,365
16.7235,299
16.7235,256
16.7301,245
16.7301,320
16.7301,445
16.7301,522
16.7301,481
16.7392,393
16.7392,319
16.7392,271
16.7392,244
16.7392,289
16.7504,407
16.7504,511
16.7504,507
16.7548,423
16.7548,342
16.7548,286
16.7548,249
16.7641,264
16.7641,366
16.7671,486
16.7692,525
16.7722,456
16.7722,369
16.7722,302
16.7722,259
16.7722,249
16.7722,323
16.7837,449
16.7858,525
16.7868,484
16.7868,395
16.7868,321
16.7868,272
16.7868,245
16.7868,290
16.7868,408
16.7868,512
16.8027,508
16.8027,424
16.8027,342
16.8027,284
16.8027,247
16.8132,262
16.8132,363
16.8183,484
16.8183,523
16.8183,456
16.8183,370
16.8183,303
16.8183,261
16.8183,251
16.8183,325
16.8341,450
16.8341,527
16.8341,486
16.8341,397
16.8409,322
16.8409,273
16.8409,245
16.8409,289
16.8497,406
16.8518,510
16.8518,507
16.8518,424
16.8518,342
16.8518,285
16.8518,248
16.8518,262
16.8656,361
16.8676,479
16.8676,516
16.8676,444
16.8676,355
16.875,286
16.875,242
16.875,230
16.8813,303
16.8833,427
16.8833,503
16.8833,462
16.8893,373
16.8893,298
16.8893,250
16.8893,222
16.8984,267
16.8995,386
16.9011,492
16.9044,492
16.9061,411
16.9077,330
16.9094,274
16.9094,238
16.9137,252
16.9137,352
16.9137,474
16.9137,514
16.9137,448
16.9137,363
16.9258,298
16.9258,257
16.9294,247
16.9294,321
16.9334,447
16.9354,525
16.9354,485
16.9354,396
16.9354,321
16.9354,272
16.9455,244
16.9455,287
16.9455,403
16.9455,508
16.9455,507
16.9567,424
16.9567,342
16.9567,285
16.9614,247
16.9614,261
16.9648,360
16.9648,480
16.9692,521
16.9692,453
16.9692,367
16.9692,301
16.9773,258
16.9773,247
16.9773,321
16.9837,446
16.9837,522
16.9837,479
16.9837,383
16.9837,299
16.9933,238
16.9933,194
16.9933,216
16.999,305
16.999,381
16.999,346
16.999,231
16.999,126
17.0094,51
17.0094,0
17.0137,14
17.0137,119
17.0137,258
17.0137,331
17.0137,314
17.0137,294
17.0261,291
17.0261,289
17.0261,297
17.0261,374
17.0261,489
17.0261,554
17.0261,501
17.0261,400
17.0414,316
17.0414,261
17.0414,231
17.047,275
17.0504,395
17.0504,505
17.0534,508
17.0534,427
17.0573,347
17.0573,290
17.0573,253
17.0573,266
17.0573,365
17.0671,485
17.0671,527
17.0671,460
17.0734,372
17.0734,306
17.0734,262
17.0734,249
17.0734,320
17.0734,445
17.0734,522
17.0734,483
17.0894,395
17.0894,319
17.0894,270
17.0894,242
17.0894,284
17.1004,400
17.1004,506
17.1004,506
17.1053,424
17.1053,341
17.1053,283
17.1053,245
17.1137,257
17.1154,354
17.117,475
17.1202,517
17.1218,449
17.1235,361
17.1235,294
17.1235,250
17.1235,238
17.1235,309
17.1235,433
17.1235,512
17.1377,474
17.1397,386
17.1418,310
17.1439,260
17.1459,231
17.1479,272
17.1497,388
17.1517,494
17.1517,495
17.1517,411
17.1578,328
17.1578,270
17.161,232
17.163,244
17.1659,341
17.168,463
17.168,505
17.168,437
17.168,349
17.168,281
17.168,236
17.168,223
17.1818,293
17.1818,417
17.1818,495
17.1818,456
17.1818,366
17.1818,288
17.1818,238
17.1818,207
17.1978,247
17.1997,363
17.1997,470
17.1997,471
17.2049,387
17.2049,303
17.2049,245
17.2109,206
17.214,216
17.2163,311
17.2185,432
17.2185,475
17.2227,408
17.2235,318
17.2255,251
17.2275,207
17.2295,193
17.2316,264
17.2343,388
17.2356,468
17.2376,430
17.2376,339
17.2424,263
17.2444,213
17.2463,183
17.2485,223
17.2506,337
17.2526,444
17.2546,446
17.2546,364
17.2581,280
17.2592,223
17.2612,185
17.2644,197
17.2663,294
17.2683,419
17.2704,465
17.2724,401
17.2744,315
17.2744,252
17.279,211
17.279,201
17.281,274
17.2831,403
17.2855,487
17.2855,453
17.2855,367
17.2925,295
17.2925,248
17.2925,222
17.2925,265
17.2999,384
17.3019,494
17.3019,499
17.3019,420
17.3088,339
17.3093,283
17.3117,247
17.3142,259
17.3163,357
17.3183,480
17.3189,526
17.3189,462
17.3243,376
17.3243,310
17.3283,267
17.3283,254
17.3283,325
17.3337,450
17.3337,531
17.3383,495
17.3401,407
17.3421,331
17.3421,280
17.3421,251
17.3478,291
17.3498,406
17.3519,513
17.3539,515
17.3559,433
17.3569,351
17.3569,292
17.3606,254
17.3639,263
17.3649,361
17.368,482
17.3696,527
17.3712,462
17.3728,374
17.3744,306
17.3744,262
17.3744,248
17.3744,317
17.3837,442
17.3858,524
17.3884,490
17.3884,402
17.3884,327
17.3884,277
17.3884,247
17.3884,286
17.3994,401
17.3994,508
17.4037,512
17.4037,429
17.4037,346
17.4098,287
17.4098,250
17.4144,260
17.4144,357
17.417,479
17.4188,525
17.4188,460
17.4242,372
17.4262,305
17.4283,262
17.4303,248
17.4303,317
17.4337,442
17.4347,524
17.4347,488
17.4347,399
17.4347,323
17.4347,272
17.4347,243
17.4347,282
17.4505,398
17.4515,507
17.4515,512
17.4515,430
17.4515,348
17.4515,289
17.4515,251
17.4643,261
17.4663,357
17.4663,479
17.4663,525
17.4663,460
17.4663,373
17.4663,305
17.4663,261
17.4663,247
17.4823,316
17.4843,442
17.4843,524
17.4843,491
17.4843,403
17.4843,327
17.4843,277
17.4843,247
17.4983,285
17.4983,400
17.4983,509
17.4983,515
17.4983,433
17.4983,350
17.4983,291
17.4983,252
17.513,261
17.5145,356
17.5166,478
17.5186,525
17.5214,461
17.5235,374
17.5255,306
17.5275,263
17.5295,248
17.5305,316
17.5305,440
17.5351,522
17.5351,488
17.5351,400
17.5351,324
17.5351,274
17.5448,243
17.5465,281
17.5505,396
17.5505,504
17.5526,510
17.5546,428
17.5546,346
17.5546,287
17.5622,248
17.5622,257
17.5622,351
17.5622,472
17.5622,517
17.5719,450
17.574,359
17.576,289
17.578,243
17.58,227
17.58,295
17.5837,419
17.5837,502
17.5837,468
17.5837,380
17.5837,303
17.5941,253
17.5948,224
17.5969,263
17.5989,379
17.6009,490
17.6029,497
17.6049,417
17.607,334
17.61,276
17.61,238
17.6145,247
17.6162,342
17.6162,467
17.6189,516
17.6209,455
17.623,369
17.626,302
17.626,260
17.626,246
17.6316,315
17.6337,440
17.6357,524
17.6377,492
17.6397,403
17.6426,327
17.644,276
17.646,245
17.646,283
17.6506,398
17.6527,507
17.6536,514
17.6536,433
17.6583,350
17.6601,290
17.6601,252
17.6643,259
17.6664,353
17.6684,476
17.6684,524
17.6717,460
17.6742,373
17.675,304
17.675,260
17.6788,245
17.6827,313
17.6846,436
17.6846,517
17.6874,478
17.6894,381
17.6911,293
17.6932,229
17.6958,181
17.6958,196
17.6992,281
17.6992,361
17.6992,336
17.6992,228
17.7072,125
17.7091,51
17.7112,2
17.7132,15
17.7147,121
17.7167,267
17.7167,355
17.7167,351
17.723,330
17.723,317
17.723,305
17.7287,301
17.7307,367
17.7328,478
17.7358,547
17.7373,501
17.7389,401
17.7421,316
17.7436,262
17.7452,230
17.7452,269
17.7504,385
17.7504,498
17.7504,509
17.7547,431
17.7583,349
17.7603,291
17.7603,253
17.7623,261
17.7663,355
17.7663,476
17.7663,525
17.7704,463
17.7704,374
17.7704,306
17.7704,261
17.7704,245
17.7704,311
17.7837,435
17.7861,519
17.7861,488
17.7861,400
17.7861,323
17.7938,273
17.7938,242
17.7938,278
17.7938,392
17.8018,501
17.8018,509
17.8018,428
17.8018,344
17.8018,285
17.8018,246
17.8018,252
17.8146,345
17.8175,468
17.8175,517
17.8175,454
17.8175,366
17.8175,297
17.8175,252
17.8175,235
17.8175,300
17.8333,423
17.8333,508
17.8374,476
17.8394,388
17.8414,311
17.8434,260
17.8454,229
17.8454,264
17.8495,377
17.8517,486
17.8517,495
17.8517,414
17.8585,330
17.8603,271
17.8603,232
17.8643,238
17.8662,328
17.8662,451
17.8705,501
17.8716,438
17.8731,350
17.8762,281
17.8777,236
17.8793,219
17.8809,283
17.8841,406
17.8862,491
17.8882,460
17.8902,371
17.8922,292
17.8942,240
17.8962,208
17.8962,242
17.8994,354
17.9014,465
17.9035,473
17.9035,391
17.9035,306
17.9035,246
17.9119,206
17.9119,211
17.9145,302
17.9145,425
17.9145,475
17.9145,412
17.9145,321
17.9145,253
17.9276,208
17.9276,190
17.9276,253
17.9276,376
17.9276,462
17.9276,431
17.9276,341
17.9276,264
17.9435,212
17.9435,181
17.9435,215
17.9503,326
17.9503,438
17.9538,447
17.9559,367
17.9579,282
17.9597,224
17.9597,185
17.9597,191
17.9597,284
17.967,410
17.9691,463
17.9691,403
17.9736,316
17.9754,252
17.9774,210
17.9794,195
17.9814,263
17.9836,389
17.9857,478
17.9877,451
17.9897,367
17.9915,294
17.9915,246
17.9915,219
17.9915,257
18.0006,374
18.0006,489
18.0026,502
18.0026,425
18.0082,344
18.0103,286
18.0123,249
18.0123,256
18.0149,349
18.0169,474
18.0169,526
18.0169,467
18.0244,379
18.0264,311
18.0284,267
18.0305,250
18.0305,315
18.0344,439
18.0344,526
18.0375,497
18.0392,408
18.0426,332
18.0446,280
18.0466,249
18.0466,284
18.0506,397
18.0526,508
18.0526,519
18.0557,440
18.0557,357
18.0557,296
18.0557,257
18.0557,261
18.0557,353
18.0557,475
18.0557,528
18.0709,467
18.0709,378
18.076,309
18.076,264
18.076,246
18.0823,311
18.0849,435
18.0866,523
18.0886,494
18.0886,407
18.0918,330
18.0939,278
18.0959,247
18.0959,281
18.0959,393
18.1024,505
18.1024,517
18.1053,437
18.1073,354
18.1093,293
18.1114,254
18.1134,259
18.1149,351
18.1185,474
18.1185,526
18.1217,467
18.1217,380
18.1217,311
18.1217,266
18.1217,249
18.1217,313
18.1344,436
18.1344,524
18.1344,496
18.1344,410
18.1344,333
18.1344,281
18.1344,249
18.1344,282
18.1501,395
18.1526,507
18.1526,518
18.1526,439
18.1526,356
18.1594,295
18.1615,255
18.1635,260
18.1655,353
18.1677,476
18.1677,530
18.1711,470
18.1711,382
18.1711,312
18.1711,267
18.1789,249
18.1815,313
18.1837,437
18.1857,524
18.1857,497
18.1857,410
18.1857,332
18.1857,281
18.1857,249
18.1983,281
18.1983,393
18.1983,505
18.2036,517
18.2054,438
18.2054,354
18.2054,294
18.2054,255
18.2135,259
18.215,350
18.217,473
18.217,527
18.2215,468
18.2215,380
18.226,312
18.226,266
18.226,248
18.2325,310
18.2332,433
18.2332,521
18.2384,493
18.2384,406
18.2416,329
18.2416,277
18.2416,244
18.2475,276
18.2494,387
18.2494,498
18.2494,510
18.2553,431
18.2573,347
18.2573,287
18.2573,247
18.2573,251
18.2657,340
18.2678,463
18.2698,515
18.2718,454
18.2733,365
18.2753,293
18.2753,246
18.2753,226
18.2753,288
18.2839,410
18.2855,498
18.2871,471
18.2903,383
18.2919,304
18.2934,252
18.2934,220
18.2976,253
18.2996,365
18.3016,479
18.3016,495
18.3045,419
18.3066,336
18.3086,277
18.3106,238
18.3126,242
18.3153,332
18.3181,458
18.3201,513
18.3221,455
18.3221,369
18.3221,302
18.3221,258
18.3221,242
18.3221,306
18.3337,430
18.3362,520
18.3362,495
18.3362,408
18.3362,330
18.3362,278
18.346,246
18.346,277
18.351,388
18.352,501
18.352,516
18.352,437
18.352,354
18.352,293
18.3609,253
18.3609,256
18.3609,345
18.3681,469
18.3681,524
18.3681,465
18.3681,377
18.3681,307
18.3681,262
18.3681,243
18.3681,306
18.3838,429
18.3838,518
18.3838,489
18.3838,396
18.3838,309
18.3838,247
18.3838,203
18.3985,218
18.3995,306
18.4015,395
18.4036,378
18.4036,265
18.407,153
18.409,71
18.409,14
18.409,6
18.4166,98
18.4186,236
18.4207,315
18.4207,291
18.4207,257
18.4207,256
18.4283,269
18.4304,287
18.4314,366
18.4337,487
18.4357,566
18.4378,525
18.4398,422
18.4398,331
18.4398,270
18.4398,233
18.4468,263
18.4488,375
18.4508,490
18.4541,509
18.4561,433
18.458,352
18.4602,293
18.4624,254
18.4645,257
18.4661,346
18.4677,469
18.4693,525
18.4709,467
18.4741,379
18.4756,310
18.4782,265
18.4802,246
18.4822,306
18.4822,429
18.4822,518
18.4875,493
18.4895,406
18.4895,328
18.494,275
18.494,243
18.4978,273
18.4998,383
18.4998,496
18.4998,510
18.5064,431
18.5064,346
18.5099,285
18.5099,244
18.5099,247
18.516,335
18.5168,459
18.5198,516
18.5198,459
18.5233,371
18.5253,301
18.5273,254
18.5294,234
18.5314,294
18.5334,416
18.5354,506
18.5368,480
18.5368,393
18.5414,314
18.5434,261
18.5454,228
18.5454,257
18.5496,367
18.5516,479
18.5536,494
18.5536,416
18.5574,330
18.5574,271
18.5574,231
18.5574,232
18.5574,319
18.5679,443
18.5679,499
18.5679,442
18.5731,353
18.5731,282
18.5731,236
18.5731,215
18.5731,275
18.5837,396
18.5837,486
18.588,462
18.5891,374
18.5891,295
18.5891,243
18.5891,210
18.597,239
18.6,347
18.602,459
18.602,474
18.6049,395
18.6049,308
18.6049,248
18.6116,207
18.6137,208
18.6162,295
18.6183,419
18.6183,476
18.6208,418
18.624,327
18.626,258
18.628,211
18.628,189
18.628,248
18.6337,370
18.6365,460
18.6385,435
18.6385,346
18.6405,266
18.6425,213
18.6445,178
18.6445,206
18.6489,314
18.6523,429
18.6543,446
18.6543,368
18.6543,282
18.6543,223
18.6543,183
18.6543,185
18.6543,273
18.6683,399
18.6683,459
18.6683,404
18.6683,316
18.6683,249
18.6683,206
18.6683,188
18.6683,252
18.6837,378
18.6837,474
18.6837,454
18.6837,371
18.6837,295
18.6837,247
18.6837,217
18.6837,249
18.6998,362
18.6998,480
18.6998,501
18.6998,428
18.6998,346
18.7087,288
18.7107,250
18.7107,253
18.7166,343
18.7178,469
18.7178,529
18.7178,474
18.7178,386
18.7178,316
18.7178,271
18.7178,251
18.7336,310
18.7356,433
18.7376,525
18.7376,502
18.7395,417
18.7415,339
18.7444,286
18.7464,253
18.7482,282
18.7495,392
18.7514,505
18.7514,523
18.7559,446
18.7559,361
18.7559,299
18.7559,259
18.764,260
18.7658,348
18.7676,471
18.7676,530
18.7676,475
18.7676,387
18.7676,316
18.7676,270
18.7798,249
18.7798,308
18.7798,430
18.7798,522
18.7798,500
18.7798,413
18.7798,334
18.7934,280
18.7955,247
18.7975,274
18.7997,384
18.7997,498
18.7997,517
18.7997,440
18.7997,356
18.7997,295
18.8116,255
18.8116,255
18.8116,343
18.8181,467
18.8181,526
18.8208,471
18.8229,383
18.8249,313
18.8269,266
18.8289,246
18.831,305
18.833,428
18.8351,521
18.8351,500
18.8351,414
18.8351,336
18.8429,283
18.8429,250
18.8429,278
18.8508,387
18.8508,501
18.8508,521
18.8508,444
18.8586,360
18.8599,298
18.8599,258
18.8599,258
18.8599,346
18.8599,470
18.8599,531
18.8599,476
18.8743,389
18.8743,318
18.8743,271
18.8804,250
18.8804,309
18.8804,432
18.8804,525
18.8804,503
18.8903,415
18.8903,336
18.8903,283
18.8903,250
18.8903,279
18.9003,389
18.9023,504
18.9044,525
18.9061,449
18.9081,365
18.9102,303
18.9102,263
18.9126,263
18.9146,350
18.9187,473
18.9187,532
18.9222,477
18.9222,389
18.9222,318
18.9222,273
18.9222,252
18.9327,310
18.9347,431
18.9347,524
18.9381,502
18.9381,415
18.9381,335
18.9381,282
18.9381,249
18.9381,276
18.9381,385
18.9381,499
18.9543,518
18.9543,442
18.9543,357
18.9543,294
18.9543,253
18.9543,251
18.9543,336
18.9543,459
18.97,518
18.97,460
18.97,369
18.97,296
18.97,248
18.97,226
18.97,283
18.97,405
18.9857,499
18.9857,478
18.9857,391
18.9857,312
18.9944,259
18.9944,226
18.9944,253
18.9944,363
19.0017,481
19.0038,503
19.0058,428
19.0058,344
19.0058,283
19.0058,243
19.0058,242
19.0058,327
19.017,453
19.019,515
19.0225,462
19.0225,375
19.0245,306
19.0265,261
19.0286,241
19.0286,300
19.0327,423
19.0348,517
19.0348,497
19.0348,409
19.0348,330
19.0348,277
19.0348,244
19.0484,271
19.0484,380
19.0518,495
19.0538,516
19.0538,440
19.0538,355
19.0538,291
19.0538,250
19.0642,248
19.0642,333
19.0642,459
19.0642,521
19.0642,469
19.0642,381
19.0642,310
19.0642,263
19.0799,241
19.0799,297
19.0799,416
19.0799,504
19.0799,476
19.0799,379
19.0799,288
19.0799,220
19.0959,167
19.0959,169
19.0959,246
19.0959,329
19.1027,321
19.1027,221
19.1027,119
19.1027,46
19.1116,3
19.1116,14
19.1146,118
19.1181,272
19.1198,388
19.1214,404
19.123,379
19.1261,352
19.1276,325
19.1276,305
19.1312,353
19.1333,457
19.1353,533
19.1373,500
19.1393,404
19.1414,319
19.1434,264
19.1434,231
19.1434,260
19.1505,371
19.1505,489
19.1505,514
19.1552,440
19.1552,356
19.159,294
19.159,254
19.1645,252
19.1645,338
19.1676,463
19.1676,526
19.1676,472
19.1676,383
19.1747,311
19.1747,265
19.1747,243
19.1747,298
19.1747,420
19.1747,515
19.1747,496
19.1747,410
19.1909,331
19.1933,277
19.1953,243
19.1974,268
19.1994,375
19.2014,490
19.2014,512
