timestamp,ecg_value
0.0006,487
0.0006,333
0.0006,202
0.0023,114
0.0027,91
0.0027,212
0.0027,420
0.0045,557
0.0045,511
0.0045,368
0.0056,231
0.0056,133
0.0056,83
0.0056,152
0.0056,338
0.0056,514
0.0056,530
0.0056,408
0.0074,270
0.0074,167
0.0074,104
0.0074,128
0.0074,283
0.0091,479
0.0091,557
0.0091,472
0.0091,339
0.0091,229
0.0091,157
0.0091,144
0.0091,258
0.0091,452
0.0109,582
0.0109,545
0.0109,422
0.0109,304
0.0125,223
0.0125,182
0.0125,248
0.0125,421
0.0125,581
0.0143,597
0.0143,491
0.016,371
0.016,278
0.016,222
0.0176,242
0.0176,381
0.0192,553
0.0192,621
0.0205,540
0.022,418
0.0226,316
0.0226,250
0.0226,234
0.0237,334
0.0242,506
0.0242,618
0.0253,579
0.0253,463
0.0259,355
0.0259,279
0.0269,240
0.0269,296
0.0274,450
0.0274,591
0.0286,599
0.0286,496
0.0286,383
0.0286,297
0.0297,244
0.0303,259
0.0308,385
0.0318,541
0.0346,602
0.0391,524
0.0401,410
0.0401,315
0.0401,253
0.0418,236
0.0418,325
0.0418,482
0.0418,586
0.0418,546
0.0418,437
0.0418,337
0.0418,268
0.0436,231
0.0436,282
0.0436,425
0.0436,556
0.0436,563
0.0436,464
0.0436,359
0.0436,279
0.0458,230
0.0458,243
0.0458,362
0.0458,510
0.0458,565
0.0468,490
0.0468,382
0.0468,296
0.0468,241
0.0468,226
0.0468,311
0.0468,461
0.0468,559
0.0468,520
0.0468,415
0.0468,321
0.0468,259
0.0485,224
0.0485,272
0.0485,408
0.0485,533
0.0485,539
0.0485,443
0.0485,343
0.0485,270
0.0485,225
0.0501,239
0.0501,353
0.0501,496
0.0525,551
0.0525,480
0.0525,378
0.0535,296
0.0535,242
0.0535,227
0.0535,307
0.0535,451
0.0535,546
0.0535,508
0.0535,407
0.0553,317
0.0553,256
0.0553,223
0.0553,269
0.0553,401
0.0553,525
0.0553,533
0.0553,443
0.0553,347
0.0553,276
0.0553,231
0.0553,242
0.057,350
0.057,486
0.057,536
0.057,464
0.057,361
0.057,278
0.057,226
0.057,210
0.057,288
0.057,429
0.057,521
0.057,486
0.057,387
0.057,300
0.0587,242
0.0587,209
0.0587,254
0.0587,383
0.0587,505
0.0587,513
0.0587,424
0.0587,331
0.0587,266
0.0587,225
0.0587,237
0.0587,345
0.0587,481
0.0587,532
0.0603,464
0.0603,367
0.0603,291
0.0603,243
0.0603,232
0.0603,311
0.0603,450
0.0603,543
0.0603,509
0.0603,412
0.0603,327
0.0603,269
0.0619,235
0.0619,275
0.0619,398
0.0619,515
0.0619,522
0.0619,435
0.0619,345
0.0619,280
0.0619,239
0.0619,250
0.0619,353
0.0635,483
0.0635,534
0.0635,465
0.0635,370
0.0635,295
0.0635,249
0.0635,235
0.0635,308
0.0635,438
0.0635,521
0.0635,476
0.0635,367
0.0635,267
0.0652,191
0.0652,131
0.0652,139
0.0652,222
0.0652,301
0.0652,279
0.0652,171
0.0652,69
0.0652,5
0.0652,0
0.0652,20
0.0652,147
0.0652,329
0.0652,456
0.0668,456
0.0668,408
0.0668,359
0.0668,314
0.0668,292
0.0668,352
0.0668,466
0.0668,541
0.0668,498
0.0668,399
0.0668,315
0.0668,262
0.0668,234
0.0668,276
0.0683,399
0.0694,516
0.0694,526
0.0699,442
0.0699,356
0.0699,294
0.0699,255
0.0699,265
0.0699,365
0.0699,493
0.0717,545
0.0717,478
0.0717,384
0.0717,310
0.0717,263
0.0717,247
0.0717,317
0.0717,447
0.0717,536
0.0717,503
0.0735,410
0.0735,328
0.0735,274
0.0735,243
0.0735,282
0.0735,401
0.0735,516
0.0735,523
0.0735,437
0.0735,346
0.0735,282
0.0735,242
0.0735,252
0.0735,352
0.0752,481
0.0752,532
0.0752,467
0.0752,373
0.0752,300
0.0752,253
0.0752,237
0.0752,306
0.0752,436
0.0752,524
0.0752,491
0.0752,398
0.0752,315
0.0752,260
0.0752,227
0.0769,264
0.0769,382
0.0769,497
0.0769,507
0.0769,422
0.0769,332
0.0769,270
0.0769,229
0.0769,237
0.0769,333
0.0769,462
0.0769,513
0.0769,447
0.0769,353
0.0769,279
0.0786,233
0.0786,218
0.0786,287
0.0786,417
0.0786,505
0.0786,472
0.0786,376
0.0786,293
0.0786,239
0.0786,208
0.0786,246
0.0786,364
0.0786,480
0.0786,490
0.0786,404
0.0803,313
0.0803,249
0.0803,207
0.0803,213
0.0803,309
0.0803,439
0.0803,492
0.0803,429
0.0803,336
0.0803,264
0.0803,217
0.0803,199
0.0803,267
0.0803,395
0.0803,484
0.082,453
0.082,359
0.082,275
0.082,220
0.082,186
0.082,222
0.082,339
0.082,458
0.082,471
0.082,388
0.082,299
0.082,238
0.082,199
0.082,208
0.082,306
0.0837,438
0.0837,497
0.0837,437
0.0837,348
0.0837,279
0.0837,236
0.0837,223
0.0837,294
0.0837,426
0.0837,521
0.0837,494
0.0837,404
0.0837,324
0.0853,272
0.0853,243
0.0856,281
0.0856,401
0.0856,519
0.0866,533
0.0866,452
0.0866,365
0.0866,301
0.0866,261
0.0885,268
0.0888,365
0.0888,494
0.0888,550
0.0898,489
0.0898,396
0.0898,322
0.0898,275
0.0898,258
0.0898,325
0.0898,455
0.0898,547
0.0898,518
0.0898,425
0.0898,343
0.0916,287
0.0916,255
0.0916,290
0.0916,407
0.0916,524
0.0916,538
0.0916,456
0.0916,369
0.0916,305
0.0916,264
0.0916,268
0.0916,363
0.0932,490
0.0932,546
0.0932,483
0.0932,389
0.0932,314
0.0932,267
0.0932,251
0.0932,319
0.0932,449
0.0932,543
0.0932,517
0.0932,424
0.0932,341
0.0949,285
0.0949,252
0.0949,286
0.0949,402
0.0949,518
0.0949,531
0.0949,448
0.0949,359
0.0949,295
0.0949,254
0.0949,259
0.0949,355
0.0949,484
0.0949,541
0.0966,480
0.0966,387
0.0966,313
0.0966,266
0.0966,247
0.0966,312
0.0966,442
0.0966,535
0.0966,508
0.0966,416
0.0966,334
0.0966,279
0.0966,247
0.0966,282
0.0982,399
0.0982,517
0.0982,533
0.0982,451
0.0982,362
0.0982,297
0.0982,255
0.0982,259
0.0982,354
0.0982,482
0.0982,540
0.0982,479
0.0982,387
0.0999,313
0.0999,268
0.0999,250
0.0999,315
0.0999,444
0.0999,537
0.0999,511
0.0999,419
0.0999,336
0.0999,280
0.0999,247
0.0999,280
0.0999,396
0.1015,513
0.1015,530
0.1015,448
0.1015,359
0.1015,294
0.1015,253
0.1015,255
0.1031,347
0.1035,473
0.1035,529
0.1035,466
0.1035,370
0.1035,295
0.1045,246
0.1045,226
0.1045,290
0.1045,419
0.1045,514
0.1045,489
0.1045,397
0.1045,315
0.1045,262
0.1045,231
0.1045,265
0.1045,383
0.1045,502
0.1062,520
0.1062,439
0.1062,349
0.1062,285
0.1062,243
0.1062,247
0.1062,342
0.1062,473
0.1062,535
0.1062,477
0.1062,385
0.1062,311
0.1062,265
0.1062,245
0.1078,309
0.1078,437
0.1078,532
0.1078,508
0.1078,416
0.1078,333
0.1078,278
0.1078,245
0.1078,277
0.1078,391
0.1078,509
0.1078,526
0.1078,444
0.1078,355
0.1078,290
0.1095,249
0.1095,252
0.1095,345
0.1095,475
0.1095,536
0.1095,478
0.1095,386
0.1095,312
0.1095,263
0.1095,241
0.1095,298
0.1095,417
0.1095,500
0.1112,459
0.1112,345
0.1112,235
0.1112,146
0.1112,75
0.1112,68
0.1112,149
0.1112,245
0.1112,250
0.1112,168
0.1112,89
0.1112,44
0.1112,32
0.1129,84
0.1129,245
0.1129,444
0.1129,557
0.1129,527
0.1129,442
0.1129,363
0.1129,300
0.1129,264
0.1129,312
0.1129,429
0.1129,520
0.1145,495
0.1145,404
0.1145,323
0.1145,271
0.1145,241
0.1145,273
0.1145,389
0.1145,508
0.1145,529
0.1145,449
0.1145,359
0.1145,294
0.1145,253
0.1161,255
0.1161,347
0.1161,476
0.1161,539
0.1161,481
0.1161,388
0.1161,312
0.1161,264
0.1161,243
0.1161,305
0.1161,432
0.1161,529
0.1161,508
0.1161,417
0.1177,333
0.1177,277
0.1177,243
0.1177,273
0.1177,386
0.1177,504
0.1177,525
0.1177,446
0.1177,356
0.1177,290
0.1177,248
0.1177,248
0.1192,337
0.1192,466
0.1192,529
0.1192,472
0.1192,379
0.1192,304
0.1192,256
0.1192,235
0.1192,295
0.1192,421
0.1192,518
0.1192,496
0.121,405
0.121,320
0.121,265
0.121,231
0.121,259
0.121,372
0.121,491
0.121,512
0.121,431
0.121,339
0.121,273
0.121,230
0.121,229
0.121,317
0.121,446
0.1227,511
0.1227,455
0.1227,362
0.1227,286
0.1227,236
0.1227,213
0.1227,271
0.1227,397
0.1227,493
0.1227,472
0.1227,381
0.1227,297
0.1227,241
0.1227,206
0.1244,232
0.1244,342
0.1244,462
0.1244,483
0.1244,403
0.1244,312
0.1244,248
0.1244,206
0.1244,205
0.1244,293
0.1244,422
0.1244,486
0.1244,430
0.1244,334
0.1244,260
0.1261,211
0.1261,189
0.1261,247
0.1261,371
0.1261,469
0.1261,448
0.1261,356
0.1261,272
0.1261,217
0.1261,183
0.1278,211
0.1278,322
0.1278,445
0.1278,471
0.1278,393
0.1278,304
0.1278,242
0.1278,202
0.1278,204
0.1278,294
0.1278,427
0.1278,496
0.1278,445
0.1294,356
0.1294,284
0.1294,239
0.1294,221
0.1294,282
0.1294,411
0.1294,514
0.1294,498
0.1294,410
0.1294,328
0.1294,273
0.1294,240
0.1294,268
0.1294,380
0.131,502
0.131,528
0.131,450
0.131,361
0.131,296
0.131,254
0.131,253
0.131,341
0.131,470
0.131,538
0.131,484
0.131,391
0.131,315
0.1325,266
0.1325,244
0.1325,302
0.1325,429
0.1325,528
0.1325,512
0.1325,422
0.1325,338
0.1325,282
0.1325,248
0.1325,274
0.1325,385
0.1325,505
0.1325,530
0.1325,453
0.1325,363
0.1325,296
0.1346,254
0.1346,253
0.1346,340
0.1346,469
0.1346,536
0.1346,483
0.1346,390
0.1362,314
0.1362,267
0.1362,244
0.1362,301
0.1362,427
0.1362,526
0.1379,510
0.1379,419
0.1379,335
0.1379,278
0.1379,243
0.1379,269
0.1379,379
0.1379,499
0.1379,526
0.1379,448
0.1379,357
0.1379,290
0.1379,248
0.1397,245
0.1397,331
0.1397,461
0.1397,530
0.1397,479
0.1397,386
0.1397,310
0.1397,262
0.1397,240
0.1397,296
0.1397,422
0.1397,522
0.1397,507
0.1397,416
0.1414,332
0.1414,275
0.1414,240
0.1414,265
0.1414,376
0.1414,497
0.1414,525
0.1414,448
0.1414,358
0.1431,292
0.1431,250
0.1431,247
0.1431,332
0.1431,462
0.1431,530
0.1431,478
0.1431,386
0.1431,310
0.1431,261
0.1431,239
0.1431,294
0.1448,419
0.1448,520
0.1448,505
0.1448,414
0.1448,330
0.1448,273
0.1448,238
0.1448,262
0.1448,372
0.1448,494
0.1448,522
0.1448,445
0.1448,355
0.1464,287
0.1464,243
0.1464,237
0.1464,318
0.1464,446
0.1464,512
0.1464,459
0.1464,365
0.1464,289
0.1464,240
0.1464,216
0.1464,271
0.1464,396
0.1464,498
0.1464,484
0.148,396
0.148,311
0.148,256
0.148,222
0.148,247
0.148,358
0.148,481
0.148,513
0.148,436
0.148,346
0.148,280
0.148,239
0.148,236
0.148,322
0.1497,454
0.1497,527
0.1497,478
0.1497,386
0.1497,311
0.1497,262
0.1497,238
0.1497,291
0.1497,415
0.1497,517
0.1497,504
0.1497,415
0.1513,331
0.1513,275
0.1513,239
0.1513,262
0.1513,371
0.1513,493
0.1513,523
0.1513,447
0.1513,356
0.153,289
0.153,247
0.153,243
0.153,327
0.153,457
0.153,528
0.153,479
0.153,387
0.153,310
0.1548,259
0.1548,230
0.1548,275
0.1548,390
0.1548,478
0.1548,448
0.1548,332
0.1548,217
0.1548,125
0.1548,51
0.1548,38
0.1548,119
0.1548,224
0.1548,249
0.1565,181
0.1565,106
0.1565,64
0.1565,61
0.1565,119
0.1565,274
0.1565,464
0.1565,573
0.1565,540
0.1565,446
0.1576,359
0.1576,292
0.1576,252
0.1576,293
0.1576,409
0.1576,508
0.1576,496
0.1576,409
0.1576,328
0.1576,274
0.1576,240
0.1576,263
0.1593,373
0.1593,496
0.1593,529
0.1593,454
0.1593,364
0.1593,296
0.1593,253
0.1593,247
0.1593,329
0.1593,459
0.1593,532
0.1593,483
0.1593,389
0.1593,313
0.1593,263
0.1611,239
0.1611,291
0.1611,415
0.1611,518
0.1611,508
0.1611,420
0.1611,334
0.1611,276
0.1611,240
0.1611,261
0.1611,369
0.1611,491
0.1611,523
0.1611,447
0.1627,357
0.1627,288
0.1627,244
0.1627,237
0.1627,318
0.1627,447
0.1627,519
0.1627,471
0.1627,379
0.1627,301
0.1627,252
0.1627,227
0.1644,278
0.1644,402
0.1644,505
0.1644,495
0.1644,406
0.1644,321
0.1644,263
0.1644,227
0.1644,246
0.1644,352
0.1644,475
0.1644,508
0.1644,433
0.1661,341
0.1661,274
0.1661,229
0.1661,222
0.1661,302
0.1661,431
0.1661,504
0.1661,456
0.1661,362
0.1661,284
0.1661,234
0.1661,207
0.1661,257
0.1661,379
0.1678,484
0.1678,474
0.1678,383
0.1678,296
0.1678,238
0.1678,200
0.1678,219
0.1678,323
0.1678,447
0.1678,482
0.1678,407
0.1678,314
0.1695,247
0.1695,202
0.1695,195
0.1695,274
0.1695,403
0.1695,478
0.1695,430
0.1695,335
0.1695,258
0.1695,207
0.1695,180
0.1695,228
0.1695,350
0.1713,455
0.1713,447
0.1713,357
0.1713,271
0.1713,213
0.1713,177
0.1713,197
0.1713,303
0.1713,430
0.1713,468
0.1713,396
0.1713,305
0.1713,241
0.1713,201
0.173,197
0.173,281
0.173,414
0.173,493
0.173,451
0.173,363
0.173,289
0.173,242
0.1743,219
0.1743,272
0.1743,398
0.1743,506
0.1743,501
0.1743,415
0.1743,332
0.1743,276
0.1743,242
0.1743,262
0.1743,370
0.1743,495
0.1743,532
0.1743,461
0.1743,371
0.176,304
0.176,261
0.176,253
0.176,333
0.176,462
0.176,538
0.176,493
0.176,400
0.176,321
0.176,270
0.176,243
0.176,292
0.176,415
0.176,521
0.1777,516
0.1777,428
0.1777,343
0.1777,284
0.1777,248
0.1777,266
0.1777,371
0.1777,494
0.1777,532
0.1777,459
0.1777,367
0.1777,298
0.1794,254
0.1794,245
0.1794,325
0.1794,455
0.1794,532
0.1794,488
0.1794,396
0.1794,318
0.1794,267
0.1794,240
0.1794,288
0.1811,411
0.1811,518
0.1811,513
0.1811,426
0.1811,341
0.1811,283
0.1811,246
0.1811,263
0.1811,368
0.1811,491
0.1811,529
0.1827,457
0.1827,366
0.1827,297
0.1827,253
0.1827,244
0.1827,322
0.1827,453
0.1827,531
0.1827,487
0.1827,395
0.1844,317
0.1844,266
0.1844,239
0.1844,287
0.1844,409
0.1844,517
0.1844,514
0.1844,427
0.1844,341
0.1844,281
0.186,244
0.186,260
0.186,365
0.186,489
0.186,528
0.186,458
0.186,367
0.1894,297
0.1911,253
0.1928,244
0.1946,322
0.1963,451
0.1981,529
0.1998,486
0.2033,394
0.2051,315
0.2069,265
0.2086,239
0.2102,286
0.2118,408
0.2149,516
0.2165,511
0.2182,423
0.2199,337
0.2234,277
0.2251,240
0.2267,255
0.2284,359
0.2301,484
0.2334,524
0.2353,454
0.2376,362
0.2394,294
0.2411,250
0.2428,241
0.2456,318
0.2461,447
0.2492,524
0.2509,479
0.2527,383
0.2561,300
0.2572,246
0.2589,217
0.2605,262
0.2635,383
0.2652,491
0.267,488
0.269,400
0.2715,313
0.2735,255
0.2746,219
0.2778,236
0.2796,340
0.2812,467
0.2833,510
0.2858,440
0.2876,350
0.2892,282
0.2915,238
0.2926,229
0.2944,306
0.2978,437
0.2988,519
0.3001,479
0.3034,389
0.3058,312
0.3068,264
0.3086,238
0.3117,285
0.3135,407
0.3147,517
0.3174,515
0.3194,429
0.3216,342
0.3226,282
0.3256,244
0.3275,259
0.3281,362
0.3298,487
0.3332,529
0.3348,459
0.3365,368
0.3381,298
0.3413,254
0.3429,243
0.3446,319
0.3462,448
0.348,529
0.3514,488
0.3536,395
0.3546,316
0.3576,265
0.3593,237
0.3607,283
0.3623,404
0.3641,510
0.3674,504
0.3692,409
0.3714,311
0.3724,238
0.3741,182
0.3758,172
0.3786,242
0.3802,332
0.3819,339
0.3853,237
0.387,122
0.3888,35
0.3904,0
0.392,0
0.3951,72
0.3962,216
0.3979,335
0.4011,361
0.4031,341
0.4055,322
0.4072,306
0.4089,292
0.4106,336
0.4122,445
0.4139,539
0.4173,525
0.4189,427
0.4208,332
0.4225,269
0.4241,231
0.4258,247
0.4292,353
0.4309,482
0.4325,529
0.4341,462
0.4374,372
0.4392,301
0.4409,257
0.4425,245
0.4441,321
0.4474,450
0.4489,532
0.4506,492
0.4522,399
0.4538,319
0.4571,267
0.4589,238
0.4605,282
0.4621,402
0.4652,512
0.4668,514
0.4684,428
0.4701,341
0.4718,280
0.4748,242
0.4765,255
0.4782,357
0.4799,483
0.4833,527
0.485,458
0.4866,365
0.4883,294
0.4914,249
0.4932,236
0.4954,310
0.4965,438
0.498,521
0.5013,482
0.5035,388
0.5045,308
0.5072,256
0.5096,227
0.5112,271
0.5123,391
0.5155,501
0.5172,502
0.5188,416
0.5204,328
0.5236,268
0.5253,229
0.5267,241
0.5285,341
0.5315,467
0.5333,512
0.5357,442
0.5375,350
0.5389,279
0.5416,234
0.5434,221
0.545,295
0.5468,424
0.5494,508
0.5499,469
0.5534,376
0.5555,295
0.5569,242
0.5593,212
0.5614,254
0.5625,373
0.5654,485
0.5672,487
0.5693,400
0.5703,311
0.572,249
0.5755,208
0.5773,219
0.579,317
0.5807,444
0.5825,489
0.5859,421
0.5877,326
0.5888,256
0.5905,210
0.5922,196
0.5939,268
0.5973,396
0.5989,480
0.6006,442
0.6024,348
0.6056,267
0.6074,214
0.6091,183
0.6109,224
0.6126,342
0.6143,453
0.6174,455
0.6194,369
0.6205,279
0.6223,218
0.6241,179
0.6274,189
0.6292,288
0.631,416
0.6327,464
0.6345,397
0.6373,304
0.639,236
0.6409,192
0.6426,181
0.6443,257
0.646,389
0.649,479
0.6507,446
0.6524,356
0.6541,279
0.6559,230
0.6595,204
0.6606,249
0.6624,373
0.6654,489
0.6675,497
0.6694,415
0.6709,330
0.6733,272
0.6751,235
0.6775,248
0.6791,350
0.681,479
0.6821,529
0.6854,464
0.6874,374
0.6885,303
0.6902,259
0.6935,246
0.6952,318
0.6969,449
0.6986,535
0.7003,499
0.7036,407
0.7053,327
0.7068,275
0.7085,245
0.7102,286
0.7119,406
0.7152,519
0.717,525
0.7186,439
0.7202,351
0.7219,288
0.7253,249
0.727,259
0.7287,358
0.7299,485
0.7332,534
0.7349,469
0.7367,376
0.7384,305
0.7401,259
0.7419,246
0.7452,318
0.7469,447
0.7487,534
0.7504,499
0.7519,406
0.7553,325
0.7574,272
0.7585,242
0.7602,282
0.7634,402
0.7656,515
0.767,521
0.7681,436
0.7717,348
0.7717,286
0.7753,247
0.7769,258
0.7787,358
0.7804,484
0.7822,534
0.7855,468
0.7869,377
0.7887,305
0.7905,259
0.7923,245
0.7955,316
0.7972,446
0.799,533
0.8009,500
0.8026,407
0.8044,326
0.8062,273
0.808,242
0.8115,282
0.8126,401
0.8143,515
0.8161,522
0.8196,437
0.8216,349
0.8227,287
0.8249,248
0.826,258
0.8295,357
0.8315,484
0.8326,535
0.8342,470
0.8375,377
0.8395,305
0.8405,259
0.8422,244
0.8439,315
0.8472,444
0.8489,532
0.8507,499
0.8536,407
0.8551,325
0.8574,272
0.858,242
0.8597,281
0.8635,400
0.8645,515
0.8662,525
0.8694,441
0.8716,354
0.8727,291
0.8744,252
0.8759,261
0.8793,359
0.8814,486
0.8824,537
0.8854,472
0.8878,379
0.8887,306
0.8915,259
0.8936,243
0.8947,313
0.8964,442
0.8982,530
0.8999,498
0.9034,404
0.9045,322
0.9061,267
0.9094,237
0.9108,276
0.9124,395
0.914,510
0.9175,520
0.9192,435
0.921,345
0.9229,280
0.9245,238
0.9276,243
0.9294,336
0.931,462
0.9328,512
0.9345,447
0.9369,353
0.9379,280
0.9414,233
0.9431,217
0.9448,287
0.9466,416
0.9482,506
0.9499,476
0.9538,385
0.9548,306
0.9566,254
0.9583,225
0.96,263
0.9633,382
0.9649,498
0.9661,508
0.9696,425
0.9711,337
0.9729,276
0.9747,238
0.9764,247
0.978,346
0.9814,476
0.9831,531
0.9848,470
0.9869,378
0.9894,306
0.9905,259
0.9922,242
0.9954,310
0.9971,439
0.9988,529
1.0005,497
1.0022,404
1.004,322
1.0058,268
1.0092,237
1.0109,275
1.0124,393
1.0141,508
1.0173,520
1.0189,437
1.0207,348
1.0224,285
1.0241,244
1.0272,251
1.0289,349
1.0305,476
1.0322,531
1.0355,469
1.0371,377
1.0387,302
1.04,251
1.0434,228
1.0451,286
1.0468,401
1.0485,474
1.0501,421
1.0534,298
1.0556,184
1.0567,94
1.0584,28
1.0601,37
1.0617,134
1.0652,240
1.0669,256
1.0685,186
1.0701,119
1.0732,88
1.0749,103
1.0764,179
1.078,339
1.0813,512
1.0833,588
1.0844,530
1.0861,428
1.0878,339
1.0911,274
1.0936,242
1.0954,300
1.0972,424
1.0994,515
1.1004,487
1.1021,398
1.1054,319
1.1068,268
1.1093,238
1.1111,276
1.1134,394
1.1144,511
1.1161,524
1.1178,441
1.1211,353
1.1228,289
1.1244,249
1.1261,255
1.1292,350
1.1309,478
1.1325,533
1.1342,472
1.1374,379
1.1392,305
1.1411,258
1.1427,240
1.1444,306
1.146,435
1.1492,526
1.1513,498
1.1524,405
1.1541,321
1.1558,267
1.1591,235
1.1609,270
1.1625,387
1.1641,503
1.1672,516
1.1688,433
1.1706,343
1.1723,279
1.174,238
1.1772,243
1.1788,337
1.1805,466
1.1821,522
1.1855,461
1.1868,368
1.1885,294
1.1902,247
1.1918,229
1.1951,294
1.1968,422
1.1984,514
1.2015,486
1.2029,393
1.2047,310
1.2064,255
1.2082,223
1.2115,257
1.2133,372
1.2151,489
1.2168,503
1.2194,420
1.2209,329
1.2227,265
1.2244,223
1.2261,227
1.2278,320
1.2313,449
1.2336,505
1.2356,443
1.2377,348
1.239,274
1.2408,225
1.2424,206
1.244,271
1.2473,398
1.2489,491
1.2507,463
1.2545,371
1.2555,287
1.2573,233
1.2596,199
1.2606,231
1.2623,345
1.2641,462
1.2672,476
1.2695,393
1.2709,302
1.2735,238
1.2757,196
1.2767,199
1.2788,291
1.2815,420
1.2829,478
1.2857,417
1.2875,321
1.2885,248
1.2903,200
1.292,181
1.2957,244
1.2967,371
1.2984,463
1.3002,437
1.3037,343
1.3047,261
1.3065,206
1.3082,174
1.3099,208
1.3135,323
1.3153,444
1.3176,463
1.3186,383
1.3217,296
1.3235,236
1.3248,198
1.3265,204
1.3282,300
1.3299,433
1.3333,495
1.335,439
1.3367,349
1.3383,278
1.34,235
1.3434,219
1.3444,286
1.3473,417
1.349,514
1.3506,492
1.3522,403
1.3539,323
1.3574,270
1.3591,239
1.3608,273
1.3625,390
1.3642,509
1.3658,528
1.3696,448
1.3706,360
1.3724,295
1.3741,254
1.3771,258
1.3788,350
1.3804,479
1.3821,539
1.3854,480
1.3875,387
1.3895,313
1.3901,265
1.3918,246
1.3951,309
1.3969,437
1.3985,531
1.4001,507
1.4036,415
1.4053,333
1.4058,278
1.4095,244
1.4105,276
1.4122,391
1.4139,509
1.4172,528
1.4186,447
1.4204,358
1.4221,293
1.4238,252
1.4271,254
1.4289,346
1.4306,475
1.4322,535
1.4353,477
1.4369,383
1.4385,308
1.4401,261
1.4433,242
1.445,304
1.4466,432
1.4483,527
1.4499,504
1.4534,414
1.4544,331
1.4562,276
1.4579,243
1.461,273
1.4627,388
1.4644,507
1.4661,526
1.4695,446
1.4713,356
1.4731,290
1.4749,249
1.4766,251
1.4783,342
1.48,471
1.4833,532
1.485,475
1.4866,382
1.4883,307
1.4911,259
1.4928,239
1.4946,301
1.4963,429
1.498,526
1.5012,504
1.5029,413
1.5047,330
1.5064,275
1.5082,242
1.5098,272
1.513,386
1.5146,505
1.5162,525
1.5195,445
1.5212,356
1.523,290
1.5247,249
1.5264,251
1.5281,341
1.5298,471
1.5332,534
1.535,477
1.5367,384
1.5396,309
1.5413,261
1.5432,240
1.5448,301
1.5465,429
1.5482,525
1.5498,504
1.5536,413
1.5546,330
1.5564,274
1.5582,240
1.5598,270
1.563,384
1.5647,503
1.5663,525
1.5695,446
1.5713,357
1.5735,291
1.5746,249
1.5775,250
1.5788,339
1.5805,468
1.5822,532
1.5839,475
1.5869,381
1.5887,304
1.5904,256
1.592,235
1.5953,295
1.5969,422
1.5985,520
1.6002,500
1.6036,408
1.605,323
1.6068,266
1.6085,229
1.6102,255
1.6119,366
1.6152,483
1.6169,504
1.6181,423
1.6213,332
1.6228,267
1.6245,225
1.6262,225
1.6294,313
1.6316,444
1.6326,509
1.6357,454
1.6375,363
1.6396,290
1.6406,243
1.6422,223
1.6455,284
1.6468,412
1.6485,511
1.6502,492
1.6539,401
1.6554,318
1.6564,264
1.6581,231
1.6599,262
1.6633,377
1.6648,499
1.6665,524
1.668,446
1.6718,357
1.6728,290
1.6745,248
1.6762,248
1.6778,337
1.6813,467
1.6831,532
1.6854,477
1.6864,383
1.6895,307
1.6912,259
1.6929,236
1.6946,296
1.6963,423
1.6993,522
1.7009,504
1.7025,413
1.7042,329
1.7059,273
1.709,238
1.7106,266
1.7122,379
1.7138,499
1.7171,524
1.7188,446
1.7204,355
1.7222,285
1.7239,236
1.7272,226
1.7293,302
1.7303,417
1.732,462
1.7352,381
1.7369,254
1.7369,145
1.74,62
1.7433,9
1.7454,46
1.7464,156
1.7481,254
1.7514,247
1.7531,176
1.7547,120
1.7564,109
1.758,141
1.7613,236
1.7627,401
1.7644,551
1.7661,585
1.7696,501
1.7718,396
1.7728,312
1.7745,254
1.7761,241
1.7795,322
1.7811,450
1.7828,518
1.7845,467
1.7862,377
1.788,304
1.7913,258
1.7929,237
1.7946,296
1.7964,423
1.7981,524
1.7998,506
1.8037,416
1.8048,331
1.8064,274
1.8081,240
1.8099,267
1.8133,378
1.815,499
1.8168,524
1.8185,446
1.8202,356
1.8221,290
1.8251,247
1.8274,245
1.8295,332
1.8305,461
1.8322,529
1.8356,476
1.8374,382
1.8392,306
1.8408,257
1.8425,233
1.8442,290
1.8459,415
1.8491,515
1.8508,498
1.8528,407
1.8555,321
1.8565,264
1.8582,229
1.8599,255
1.8632,366
1.8651,487
1.8669,515
1.8685,435
1.8717,345
1.8727,278
1.8745,236
1.8761,234
1.8793,319
1.8809,449
1.8825,516
1.8874,463
1.8874,369
1.8887,292
1.8915,242
1.8925,219
1.8941,275
1.8958,400
1.8992,500
1.9009,484
1.9029,392
1.9041,307
1.9058,249
1.9093,213
1.9109,237
1.9127,347
1.9144,468
1.916,496
1.9194,418
1.9205,326
1.9223,260
1.924,216
1.9274,212
1.929,296
1.9311,424
1.9327,492
1.9354,439
1.9372,343
1.9383,267
1.9406,217
1.9433,194
1.9449,250
1.9465,375
1.9481,476
1.9514,460
1.9527,369
1.9544,283
1.9561,225
1.9578,188
1.961,211
1.9627,318
1.9644,441
1.966,469
1.9688,391
1.9706,298
1.9723,232
1.974,188
1.9775,184
1.9793,268
1.9811,397
1.9823,467
1.9854,414
1.9877,319
1.9891,244
1.9901,194
1.9918,171
1.9952,227
1.9969,354
1.9986,458
2.0003,447
2.0033,359
2.0056,275
2.0066,221
2.0083,188
2.0099,215
2.0134,326
2.0155,454
2.0165,486
2.0197,412
2.0217,323
2.0227,260
2.0244,222
2.0261,222
2.0295,311
2.0388,445
2.0388,519
2.0388,472
2.0408,382
2.0408,307
2.0408,261
2.043,239
2.044,295
2.0474,421
2.0488,525
2.051,513
2.052,423
2.0555,340
2.0566,282
2.0581,247
2.0598,271
2.0629,382
2.0646,503
2.0662,533
2.0694,458
2.0712,368
2.0729,300
2.0746,258
2.0762,254
2.0795,338
2.0812,468
2.0829,540
2.0846,489
2.0867,396
2.0894,319
2.0911,270
2.0928,245
2.0945,298
2.097,423
2.0988,526
2.1005,514
2.1022,424
2.1039,339
2.1074,281
2.1091,246
2.1107,268
2.1136,377
2.1146,499
2.1164,531
2.1195,455
2.1213,365
2.123,297
2.1247,254
2.1264,249
2.128,332
2.1297,463
2.1331,534
2.1347,485
2.1364,392
2.1382,314
2.1409,265
2.1431,240
2.1442,293
2.1459,417
2.149,521
2.1506,510
2.1522,421
2.1539,336
2.1573,279
2.1589,244
2.1605,266
2.1633,375
2.165,498
2.1667,530
2.1683,456
2.17,365
2.1734,297
2.175,254
2.1767,248
2.1781,330
2.1798,460
2.1832,533
2.1849,485
2.1867,393
2.1884,315
2.1901,266
2.1918,241
2.1953,294
2.1969,419
2.1986,523
2.2002,513
2.2039,425
2.2049,342
2.2066,284
2.2083,248
2.2101,269
2.2119,377
2.2153,500
2.217,533
2.2186,457
2.2204,367
2.2221,298
2.2238,255
2.2272,249
2.2289,332
2.2307,463
2.2324,536
2.2342,489
2.236,396
2.2394,318
2.241,269
2.2428,244
2.2445,296
2.2462,420
2.2478,524
2.2511,515
2.2535,426
2.2545,341
2.2573,282
2.259,245
2.2606,265
2.2623,373
2.264,496
2.2673,531
2.2696,455
2.2706,364
2.2723,295
2.2753,251
2.2771,244
2.2788,326
2.2805,455
2.2821,530
2.2855,483
2.2878,389
2.2892,310
2.2905,257
2.2922,229
2.2954,276
2.297,397
2.2985,500
2.3001,490
2.3034,401
2.3056,314
2.3066,256
2.3083,219
2.31,239
2.3135,345
2.3153,470
2.317,506
2.3194,434
2.3204,344
2.3236,278
2.3246,237
2.3262,231
2.3296,312
2.3306,443
2.3324,519
2.3356,472
2.3377,381
2.3391,305
2.3412,257
2.3436,233
2.345,286
2.3467,412
2.3484,518
2.3517,512
2.3536,425
2.3546,340
2.3577,282
2.3595,246
2.3617,265
2.3627,372
2.3645,495
2.3662,530
2.3698,456
2.3716,365
2.3737,296
2.3748,253
2.3765,245
2.3795,324
2.3809,454
2.3826,529
2.3856,483
2.3869,390
2.3887,313
2.3904,262
2.3921,236
2.3953,287
2.3969,410
2.3986,516
2.4003,511
2.4035,422
2.4047,334
2.4065,269
2.4082,224
2.4098,231
2.4132,320
2.4151,426
2.4168,438
2.419,334
2.4212,210
2.4226,109
2.4243,35
2.4259,2
2.4293,66
2.431,189
2.4328,275
2.4345,249
2.4362,184
2.4379,149
2.4397,163
2.4427,207
2.4444,310
2.4471,464
2.4492,581
2.451,570
2.4521,470
2.4538,367
2.4572,290
2.4588,240
2.4604,250
2.4619,351
2.4651,475
2.4666,514
2.4686,445
2.4713,358
2.4731,293
2.4748,252
2.4764,245
2.4781,324
2.4798,453
2.4832,531
2.4849,487
2.4875,394
2.488,315
2.4897,265
2.4931,238
2.4948,287
2.4974,409
2.4991,516
2.5009,511
2.5034,422
2.5053,336
2.5069,275
2.5086,238
2.5102,255
2.5132,360
2.5149,485
2.5165,524
2.5182,452
2.5199,362
2.5231,293
2.5249,249
2.5266,239
2.5283,317
2.53,446
2.5334,523
2.5356,479
2.5366,386
2.5384,307
2.5402,256
2.543,229
2.5451,276
2.5468,397
2.5484,504
2.55,499
2.5528,411
2.5546,324
2.5563,265
2.558,227
2.5609,243
2.5626,346
2.5643,470
2.566,508
2.5696,436
2.5706,344
2.5723,275
2.574,231
2.5773,221
2.579,298
2.5806,427
2.5823,505
2.584,462
2.5874,369
2.5892,291
2.5913,241
2.5924,213
2.5941,259
2.5958,379
2.5991,486
2.6007,482
2.6024,393
2.6042,305
2.6072,245
2.609,207
2.6107,223
2.6124,324
2.6141,449
2.6158,489
2.6197,417
2.6207,323
2.6228,255
2.6238,211
2.6271,200
2.6289,276
2.6305,404
2.6322,482
2.6354,440
2.6368,345
2.639,266
2.64,214
2.6435,185
2.6445,229
2.6462,348
2.6479,456
2.6512,453
2.6529,364
2.655,277
2.656,218
2.6595,180
2.6608,195
2.6624,296
2.664,422
2.6673,463
2.6689,392
2.6711,299
2.6735,231
2.6751,186
2.6767,175
2.6793,252
2.6808,383
2.6829,464
2.6845,425
2.6877,333
2.6895,258
2.6905,211
2.6922,186
2.6939,235
2.6975,360
2.6991,472
2.7009,474
2.7031,390
2.7055,306
2.7073,251
2.7098,217
2.7116,237
2.7137,343
2.7151,473
2.7161,518
2.7191,451
2.7214,362
2.7236,296
2.7257,254
2.7272,245
2.7285,322
2.7303,452
2.7338,533
2.7354,494
2.7378,402
2.7399,324
2.7413,274
2.7434,246
2.7439,291
2.7475,413
2.7496,522
2.7506,522
2.7537,436
2.7555,351
2.7568,291
2.7585,253
2.7598,268
2.7633,371
2.7656,495
2.7666,538
2.7695,469
2.7715,378
2.7725,308
2.7739,264
2.7774,252
2.7791,327
2.7808,457
2.7826,538
2.7843,499
2.786,405
2.7894,326
2.7911,274
2.7928,245
2.7945,289
2.7962,409
2.7992,519
2.801,519
2.8031,432
2.8042,344
2.806,284
2.8094,246
2.811,259
2.813,362
2.814,488
2.8176,532
2.8196,463
2.8206,372
2.8224,302
2.8242,258
2.826,247
2.8297,321
2.8307,449
2.8324,531
2.8341,493
2.8359,400
2.8377,321
2.8411,270
2.8427,242
2.8443,287
2.8461,407
2.8478,518
2.8511,519
2.8528,433
2.8546,347
2.8564,286
2.858,247
2.8613,259
2.863,361
2.8646,486
2.8663,532
2.8697,464
2.8707,373
2.8728,303
2.8755,259
2.8767,247
2.8784,322
2.8801,452
2.8833,535
2.8851,498
2.8869,405
2.8887,325
2.8904,272
2.8934,244
2.895,287
2.8966,407
2.8982,519
2.8998,522
2.9029,436
2.9045,350
2.9063,289
2.9091,250
2.9109,262
2.9125,362
2.9141,487
2.9174,533
2.9194,466
2.9204,374
2.9222,303
2.9253,259
2.927,247
2.9289,320
2.9305,448
2.9321,531
2.9353,494
2.9376,401
2.9386,321
2.9403,270
2.9421,241
2.9439,283
2.9472,402
2.9488,513
2.9505,516
2.9522,430
2.954,343
2.9576,283
2.9586,244
2.9602,255
2.9619,354
2.9652,477
2.9668,520
2.9685,451
2.9702,356
2.9735,284
2.975,238
2.9775,224
2.9781,296
2.9815,424
2.9833,508
2.9847,471
2.9862,379
2.9894,299
2.9911,249
2.9929,222
2.9946,265
2.996,386
2.9993,499
3.0005,505
3.0038,420
3.0051,333
3.0069,272
3.0086,234
3.0106,247
3.0133,349
3.0151,479
3.0168,530
3.0184,466
3.0202,376
3.0219,306
3.0249,261
3.0266,248
3.0283,320
3.0314,449
3.0331,533
3.0348,497
3.0366,402
3.0384,321
3.0402,268
3.0432,239
3.0439,280
3.0457,399
3.0492,512
3.051,519
3.0536,435
3.0558,348
3.0571,286
3.0581,246
3.0616,256
3.0634,355
3.0651,482
3.0668,531
3.0686,465
3.0707,374
3.0739,303
3.075,259
3.0768,243
3.0785,310
3.0802,430
3.0819,505
3.0853,456
3.0871,345
3.0893,243
3.0908,163
3.0934,99
3.0951,102
3.0967,182
3.0985,264
3.1002,248
3.1037,151
3.1056,66
3.1066,18
3.1084,0
3.1101,46
3.1136,202
3.1153,407
3.1174,526
3.1184,508
3.1216,437
3.1239,369
3.1249,312
3.1263,282
3.128,336
3.1315,450
3.1329,526
3.1352,486
3.1377,391
3.1398,312
3.1408,261
3.1421,234
3.1449,276
3.1467,397
3.1484,511
3.1515,521
3.1529,438
3.1547,352
3.1565,291
3.1582,252
3.1616,260
3.1634,357
3.1655,483
3.1666,532
3.1696,467
3.171,376
3.1728,304
3.1745,259
3.1775,243
3.1792,313
3.181,441
3.1827,528
3.184,495
3.1876,402
3.1897,321
3.1907,268
3.1924,237
3.1941,275
3.1975,392
3.1986,504
3.2006,512
3.2033,428
3.2053,340
3.2064,279
3.208,240
3.2115,249
3.2131,346
3.2149,473
3.2166,525
3.2183,459
3.2201,365
3.2219,292
3.2253,245
3.2269,228
3.2286,297
3.2303,426
3.2338,514
3.2356,482
3.2372,390
3.2383,308
3.24,254
3.2432,222
3.2453,258
3.2473,375
3.2484,490
3.2501,502
3.2535,418
3.2553,329
3.2574,266
3.2584,225
3.2601,232
3.2619,327
3.2649,455
3.2672,507
3.2698,442
3.2708,350
3.2727,278
3.2744,231
3.2761,214
3.2779,281
3.2815,408
3.2825,496
3.2842,463
3.286,370
3.2896,288
3.2914,235
3.2935,203
3.2945,239
3.2975,356
3.2985,472
3.3003,483
3.302,399
3.3055,310
3.3065,247
3.3095,206
3.3116,212
3.3129,306
3.314,433
3.3177,484
3.3192,419
3.3216,323
3.3233,252
3.3247,206
3.3276,189
3.3289,256
3.3311,383
3.3339,471
3.3355,439
3.3371,344
3.3397,262
3.3411,207
3.3435,175
3.3453,211
3.3478,326
3.3491,443
3.3502,456
3.3537,373
3.3551,285
3.3579,226
3.3594,188
3.3616,196
3.3636,292
3.3659,423
3.3669,482
3.3701,422
3.3712,332
3.3737,265
3.3759,223
3.3775,211
3.3799,282
3.3817,414
3.3833,508
3.3857,481
3.3878,392
3.3888,313
3.3933,261
3.3933,232
3.395,270
3.3966,389
3.3992,506
3.4008,520
3.4024,440
3.4041,354
3.4058,293
3.4091,255
3.4108,263
3.414,360
3.4168,487
3.4168,542
3.4195,479
3.4203,386
3.4218,311
3.4253,264
3.4271,248
3.4288,315
3.4305,445
3.4333,538
3.4346,511
3.4373,420
3.4378,339
3.4409,284
3.4433,252
3.4454,286
3.4459,401
3.4493,517
3.4508,530
3.453,447
3.4552,359
3.4568,294
3.4585,254
3.4601,258
3.4634,352
3.4651,480
3.4669,538
3.4686,476
3.4715,384
3.4735,311
3.4746,265
3.4763,246
3.4779,312
3.4813,439
3.4826,531
3.4844,504
3.4861,412
3.4878,330
3.4913,276
3.493,244
3.4947,279
3.4964,394
3.4987,509
3.5001,522
3.5018,439
3.5048,351
3.5071,287
3.5091,247
3.5108,252
3.5125,346
3.5142,475
3.5159,532
3.5191,472
3.5209,380
3.5224,306
3.5254,259
3.5273,239
3.529,304
3.5306,432
3.5323,526
3.5351,501
3.5368,410
3.538,327
3.541,273
3.5427,241
3.5454,276
3.5459,392
3.5492,510
3.5506,528
3.5522,447
3.5539,359
3.5572,295
3.5585,254
3.5611,259
3.5627,351
3.5644,478
3.5674,535
3.5685,474
3.5713,382
3.5727,309
3.5744,263
3.5773,246
3.5789,311
3.5806,438
3.5823,530
3.584,504
3.5874,412
3.589,330
3.5906,275
3.5934,243
3.5951,276
3.5967,392
3.5983,510
3.6,527
3.6035,447
3.6046,360
3.6063,296
3.6081,256
3.6115,259
3.6135,350
3.6145,477
3.6158,534
3.6196,474
3.6206,381
3.6223,307
3.6241,259
3.6274,239
3.6291,300
3.6308,426
3.6325,517
3.6341,490
3.6375,396
3.6393,311
3.641,255
3.6427,221
3.6444,254
3.646,369
3.6493,488
3.6509,506
3.6526,424
3.6552,334
3.657,270
3.6588,230
3.6604,234
3.662,326
3.6653,457
3.6668,518
3.6686,460
3.6716,367
3.6726,294
3.6743,247
3.676,227
3.6793,291
3.681,420
3.6826,516
3.6842,493
3.6876,404
3.689,324
3.6906,272
3.6922,242
3.6938,275
3.697,390
3.6987,508
3.7003,527
3.7037,446
3.7047,358
3.7065,293
3.7081,251
3.7098,253
3.7129,345
3.7146,473
3.7163,534
3.7196,475
3.7211,382
3.7229,307
3.7246,259
3.7262,239
3.7279,301
3.7314,428
3.7328,523
3.7345,501
3.7376,410
3.7397,327
3.7407,273
3.7424,241
3.7442,272
3.7475,384
3.7493,497
3.7509,508
3.7537,416
3.7555,312
3.7569,231
3.7597,166
3.7615,135
3.7636,187
3.765,275
3.7677,300
3.769,215
3.7715,105
3.7728,23
3.7749,0
3.7776,0
3.7791,70
3.7818,227
3.7831,386
3.7855,435
3.788,405
3.789,362
3.7908,322
3.7926,289
3.7958,311
3.7977,412
3.7987,517
3.8,526
3.8032,438
3.8057,345
3.8067,280
3.8085,241
3.8102,245
3.8138,338
3.8152,470
3.8176,535
3.8194,480
3.8208,389
3.824,315
3.8254,267
3.8265,246
3.8287,306
3.8315,433
3.8326,529
3.8354,508
3.8378,416
3.8389,334
3.8401,280
3.8436,247
3.845,277
3.8466,390
3.8479,507
3.8514,527
3.8535,447
3.855,357
3.856,292
3.8578,250
3.8616,251
3.8627,340
3.8657,469
3.8675,532
3.8701,474
3.8711,381
3.8737,306
3.8747,257
3.876,236
3.8794,295
3.8807,421
3.8837,516
3.8857,493
3.8871,402
3.8881,318
3.8914,263
3.8925,230
3.8942,259
3.8959,372
3.8959,490
3.8959,511
3.8959,431
3.905,340
3.9069,276
3.9069,234
3.9069,234
3.9117,323
3.9137,452
3.9137,516
3.9137,459
3.9198,365
3.9236,289
3.9236,240
3.9236,218
3.9236,277
3.9236,403
3.9236,500
3.9236,479
3.9358,388
3.9386,304
3.9386,249
3.9386,214
3.9447,241
3.9463,352
3.9485,470
3.9485,491
3.9532,411
3.9553,319
3.9553,255
3.9553,214
3.9597,213
3.9597,301
3.9597,430
3.967,495
3.9686,439
3.9719,345
3.9719,270
3.975,221
3.9765,198
3.9786,256
3.9786,381
3.9786,479
3.9786,460
3.9863,369
3.9882,285
3.9901,229
3.9901,193
3.9945,220
3.9945,329
3.9945,449
3.9945,472
4.002,391
4.0044,299
4.0044,234
4.008,192
4.01,191
4.01,278
4.01,408
4.01,474
4.01,420
4.0209,326
4.0209,253
4.0209,206
4.0258,186
4.0258,246
4.0258,374
4.0258,475
4.0258,459
4.0366,372
4.0366,292
4.0403,239
4.0403,208
4.0403,238
4.0463,352
4.0463,476
4.0509,503
4.0522,428
4.0544,340
4.0544,278
4.0544,239
4.0604,240
4.0604,329
4.0604,461
4.0604,529
4.0686,477
4.0686,386
4.0686,313
4.0686,266
4.0686,245
4.0686,303
4.0799,429
4.0799,529
4.0842,512
4.0866,422
4.0866,340
4.0866,284
4.0866,250
4.0866,275
4.0866,386
4.0866,506
4.0999,531
4.1031,452
4.1031,363
4.1031,296
4.1031,254
4.1031,252
4.1031,339
4.1031,469
4.1159,536
4.1159,484
4.1199,391
4.1219,314
4.1219,265
4.1266,243
4.1286,300
4.1306,427
4.1317,527
4.134,510
4.136,420
4.136,336
4.136,278
4.136,243
4.1445,268
4.1475,379
4.1475,500
4.1475,527
4.1475,449
4.1543,358
4.1543,292
4.1543,250
4.1543,247
4.1633,333
4.1633,463
4.1633,530
4.169,477
4.1711,383
4.1711,307
4.174,258
4.174,236
4.179,293
4.179,419
4.179,520
4.179,505
4.1866,414
4.1886,330
4.1886,274
4.1886,239
4.1949,264
4.1949,375
4.1949,497
4.1949,525
4.2032,447
4.2032,357
4.2032,290
4.2032,247
4.211,244
4.211,330
4.211,461
4.211,531
4.211,480
4.2199,386
4.2199,309
4.2199,259
4.2275,235
4.2275,291
4.2275,418
4.2275,521
4.2275,508
4.2366,418
4.2366,333
4.2366,276
4.2427,240
4.2444,265
4.2466,376
4.2466,499
4.2466,528
4.2466,450
4.2466,359
4.2466,291
4.2584,248
4.2584,245
4.2584,331
4.2584,462
4.2584,533
4.2689,482
4.2709,389
4.2729,311
4.2745,261
4.2768,237
4.2768,292
4.2768,418
4.2768,521
4.2768,506
4.2869,415
4.2869,328
4.2909,269
4.2909,232
4.2909,254
4.2909,363
4.2976,484
4.2976,511
4.2976,431
4.3036,338
4.3062,270
4.3082,226
4.3082,221
4.3082,306
4.3082,438
4.3082,510
4.3082,459
4.3199,365
4.3219,288
4.3219,239
4.3219,217
4.3284,275
4.3304,404
4.3304,509
4.3304,498
4.3304,407
4.3379,320
4.3379,262
4.3379,226
4.3379,251
4.3469,364
4.3469,491
4.3469,524
4.3536,449
4.3557,358
4.3557,289
4.3577,246
4.3597,241
4.3617,327
4.3648,460
4.3648,533
4.3693,483
4.3713,387
4.3713,308
4.3713,257
4.3713,233
4.3796,287
4.3796,415
4.3816,521
4.3854,510
4.3874,419
4.3883,332
4.3903,272
4.3926,235
4.3946,258
4.3957,368
4.3957,494
4.4013,526
4.4034,449
4.4034,357
4.4066,288
4.4066,243
4.4098,235
4.4134,314
4.4134,439
4.4174,501
4.4188,434
4.4208,314
4.4208,208
4.4236,121
4.4236,55
4.4289,70
4.4289,165
4.4332,249
4.4332,226
4.4332,136
4.4384,62
4.4384,23
4.4384,19
4.4384,97
4.447,281
4.449,476
4.449,557
4.449,504
4.449,416
4.449,338
4.4584,278
4.4604,257
4.4604,329
4.4651,453
4.4671,522
4.4689,472
4.4689,378
4.4689,301
4.4689,253
4.4689,230
4.4793,287
4.4811,416
4.4811,524
4.4811,516
4.4865,426
4.4887,339
4.4887,279
4.4887,243
4.4887,265
4.4971,375
4.4971,501
4.4995,534
4.5031,457
4.5052,365
4.5064,294
4.5092,250
4.5102,243
4.5132,327
4.514,460
4.516,536
4.518,487
4.5201,391
4.5227,311
4.5247,259
4.526,233
4.5289,286
4.5308,413
4.5308,520
4.5308,510
4.5373,419
4.5392,331
4.5392,270
4.5429,232
4.5443,252
4.5475,362
4.5475,487
4.5475,522
4.5529,445
4.5529,352
4.5572,282
4.5572,237
4.5604,231
4.5604,314
4.5604,446
4.5674,522
4.5674,474
4.5706,378
4.5706,297
4.5739,246
4.5775,219
4.5775,271
4.581,396
4.5826,502
4.5855,493
4.5864,402
4.5884,313
4.5912,253
4.5923,215
4.5923,235
4.5969,344
4.5969,470
4.601,506
4.6021,430
4.6052,335
4.6052,265
4.6081,219
4.611,210
4.611,291
4.6149,424
4.6149,500
4.6149,453
4.6199,357
4.6219,276
4.6254,223
4.627,195
4.6286,246
4.6286,371
4.6286,479
4.6286,470
4.6286,379
4.6286,290
4.6412,230
4.642,191
4.6453,211
4.6468,317
4.6485,445
4.6501,481
4.6537,405
4.655,310
4.656,241
4.6594,195
4.661,186
4.6627,268
4.6644,399
4.6661,477
4.6694,430
4.6705,333
4.6722,254
4.6754,202
4.6771,175
4.6789,226
4.6805,353
4.6822,463
4.6839,457
4.6873,368
4.689,282
4.6913,225
4.6935,189
4.695,211
4.6966,319
4.6983,450
4.7,490
4.7035,419
4.7046,327
4.7059,262
4.7091,220
4.7108,215
4.7125,299
4.7142,436
4.7159,518
4.7193,476
4.7207,385
4.7224,307
4.7241,258
4.7258,233
4.7293,285
4.7309,412
4.7326,521
4.7343,517
4.7374,429
4.7391,343
4.7408,284
4.742,247
4.7455,266
4.7471,375
4.7488,500
4.7505,538
4.753,466
4.7547,373
4.7573,303
4.7589,259
4.7612,250
4.7634,331
4.7652,462
4.7669,540
4.7703,496
4.771,401
4.772,321
4.7754,269
4.7764,242
4.7781,291
4.7814,416
4.7828,525
4.7845,521
4.7862,432
4.788,345
4.7913,284
4.793,245
4.7949,263
4.7966,370
4.7983,496
4.8,535
4.8035,463
4.8054,370
4.8066,300
4.8083,255
4.81,247
4.8133,326
4.815,457
4.8163,536
4.818,492
4.8213,397
4.8226,317
4.8251,265
4.8274,237
4.8291,285
4.8309,410
4.8326,519
4.8342,516
4.8359,427
4.839,341
4.8407,281
4.8424,244
4.8441,261
4.8473,367
4.849,492
4.8507,532
4.8524,459
4.8542,366
4.8559,295
4.8594,250
4.8614,241
4.8624,320
4.8641,452
4.8674,532
4.8691,490
4.8704,397
4.8721,318
4.8755,266
4.8771,238
4.8789,286
4.8806,408
4.8823,518
4.8839,515
4.8874,427
4.8888,340
4.8905,280
4.8922,243
4.894,259
4.8973,364
4.899,490
4.9007,531
4.9033,459
4.9047,367
4.9063,297
4.908,252
4.9113,242
4.9129,320
4.9146,450
4.9163,530
4.918,488
4.9197,394
4.9232,315
4.9249,263
4.9266,235
4.9283,281
4.9315,405
4.9325,515
4.9341,514
4.9358,426
4.9392,339
4.9409,278
4.9425,239
4.9442,254
4.9474,359
4.949,485
4.9507,527
4.9536,457
4.9547,366
4.9564,295
4.9582,250
4.96,237
4.9634,310
4.9651,437
4.9667,514
4.9685,469
4.9716,374
4.9734,294
4.9756,242
4.9766,215
4.9795,261
4.9812,383
4.983,493
4.984,493
4.988,406
4.9897,319
4.9907,261
4.9927,225
4.9938,241
4.9972,346
4.9989,475
5.0006,519
5.0042,449
5.0055,358
5.0072,287
5.009,243
5.0108,234
5.0125,311
5.0142,444
5.0173,528
5.0195,489
5.021,397
5.0234,319
5.0251,269
5.0268,240
5.0285,286
5.0316,408
5.0334,518
5.0352,518
5.038,431
5.039,344
5.0408,283
5.0424,244
5.0441,258
5.0457,360
5.0492,486
5.0509,530
5.053,460
5.054,368
5.0558,297
5.0594,252
5.0611,240
5.0628,315
5.0646,446
5.0663,528
5.0695,488
5.0708,396
5.0726,317
5.0744,264
5.0761,230
5.0794,267
5.0812,378
5.0829,476
5.0845,459
5.0861,347
5.0879,230
5.0914,135
5.0931,60
5.0948,40
5.0965,116
5.0982,225
5.0998,262
5.1036,198
5.1047,121
5.1071,73
5.1094,63
5.1107,109
5.1124,255
5.1142,446
5.1159,569
5.1193,549
5.1215,456
5.1226,367
5.1244,297
5.126,252
5.1277,283
5.1315,396
5.1325,502
5.1342,504
5.1373,419
5.1395,334
5.1405,276
5.1425,241
5.1454,255
5.1467,359
5.1483,486
5.15,532
5.1534,464
5.1551,372
5.1562,301
5.1579,257
5.1614,245
5.1631,320
5.1649,451
5.1666,534
5.1683,496
5.1723,403
5.1737,323
5.1747,270
5.176,240
5.1795,282
5.1813,402
5.1829,513
5.1846,515
5.1868,428
5.1896,341
5.191,280
5.1925,241
5.1942,253
5.196,354
5.1991,480
5.2009,526
5.2026,458
5.2044,365
5.2074,293
5.2095,247
5.2105,233
5.2122,305
5.214,434
5.2173,518
5.2191,480
5.221,387
5.2234,307
5.2248,255
5.227,225
5.228,267
5.2314,388
5.2327,499
5.2344,502
5.2374,416
5.2389,327
5.2406,266
5.2419,226
5.2453,237
5.247,336
5.2493,464
5.2511,511
5.2528,443
5.2553,350
5.257,279
5.2587,233
5.2604,219
5.2621,290
5.2655,419
5.2675,504
5.2694,467
5.2706,373
5.2723,292
5.275,238
5.2767,208
5.2784,249
5.28,367
5.2833,479
5.2847,483
5.2864,395
5.2893,305
5.291,244
5.2926,204
5.2943,213
5.2959,311
5.2992,439
5.3005,486
5.3034,418
5.3051,322
5.3068,251
5.3085,205
5.3103,189
5.312,260
5.3153,389
5.3171,475
5.3189,438
5.3203,343
5.322,262
5.3254,209
5.3267,177
5.3283,217
5.33,334
5.3331,448
5.3349,453
5.3366,367
5.3383,279
5.34,218
5.3434,179
5.3454,189
5.3465,288
5.3482,419
5.3499,471
5.3533,406
5.3551,314
5.3567,246
5.3585,203
5.3611,190
5.3634,264
5.3649,398
5.3666,489
5.3683,458
5.3713,370
5.373,293
5.3747,244
5.3774,216
5.379,258
5.3806,380
5.3822,496
5.3839,506
5.387,424
5.3887,339
5.3903,279
5.392,242
5.3953,252
5.3969,353
5.3986,482
5.4002,534
5.4019,469
5.4052,378
5.4069,306
5.4086,261
5.4103,246
5.4119,317
5.4148,448
5.4165,535
5.4187,502
5.4214,409
5.4231,327
5.4248,274
5.4265,243
5.4282,281
5.4299,400
5.4333,515
5.4349,524
5.4366,439
5.4383,353
5.4415,290
5.4432,251
5.4445,260
5.4462,359
5.4485,486
5.4512,538
5.4529,472
5.4547,379
5.4564,307
5.4581,261
5.4598,246
5.4633,315
5.4648,445
5.4664,533
5.468,500
5.4713,408
5.4729,327
5.4747,274
5.4764,243
5.4782,282
5.4798,400
5.4831,514
5.4854,523
5.4864,438
5.4882,350
5.4901,287
5.4936,248
5.4947,257
5.4963,355
5.498,482
5.5015,534
5.5028,469
5.5046,376
5.5063,304
5.5084,258
5.5115,243
5.5132,312
5.515,442
5.5167,530
5.5196,498
5.5214,407
5.5231,325
5.5247,272
5.5264,241
5.5281,279
5.5315,398
5.5332,513
5.535,525
5.5367,442
5.5384,354
5.5401,291
5.5435,251
5.5445,259
5.5462,356
5.5485,483
5.5512,536
5.5535,472
5.5548,380
5.5566,308
5.5581,262
5.5599,246
5.5633,313
5.565,442
5.5667,532
5.5683,501
5.57,409
5.5735,327
5.5746,274
5.5762,243
5.578,279
5.5814,396
5.5831,511
5.5848,522
5.5875,438
5.5886,350
5.59,287
5.5936,247
5.5953,254
5.5971,350
5.5989,478
5.6007,533
5.6038,470
5.6055,377
5.6076,304
5.6096,257
5.6107,240
5.6127,307
5.6158,436
5.6171,527
5.6196,497
5.6211,405
5.6227,323
5.6255,269
5.6267,235
5.6302,268
5.6316,381
5.6326,492
5.6356,502
5.6373,417
5.6395,327
5.6411,265
5.6427,225
5.6443,231
5.646,326
5.6493,456
5.6509,512
5.6526,451
5.6544,359
5.6562,289
5.6597,244
5.661,228
5.6621,296
5.6657,426
5.6668,518
5.6686,490
5.6718,398
5.6739,316
5.6753,263
5.6777,233
5.6794,270
5.6812,389
5.6833,507
5.6852,523
5.6881,442
5.6896,356
5.6906,293
5.6923,253
5.6941,259
5.6976,354
5.6993,481
5.7013,535
5.7037,473
5.7053,380
5.7075,307
5.7085,261
5.7102,244
5.7119,311
5.7153,439
5.7174,530
5.7188,501
5.7207,409
5.7234,326
5.7252,271
5.7269,239
5.7285,273
5.7302,390
5.7334,506
5.7351,521
5.7368,439
5.7385,351
5.7401,284
5.7434,239
5.745,236
5.7468,318
5.749,433
5.75,470
5.7534,384
5.7551,261
5.7567,155
5.7584,74
5.7598,24
5.7634,65
5.7644,175
5.7661,262
5.7694,241
5.7708,166
5.7724,110
5.7741,94
5.7771,122
5.7786,227
5.7803,402
5.782,554
5.7853,584
5.7871,500
5.7888,399
5.7904,317
5.7921,261
5.7954,253
5.7965,337
5.7982,462
5.8004,519
5.803,460
5.8052,370
5.8068,301
5.8084,257
5.811,242
5.8126,309
5.8139,439
5.8172,533
5.8189,507
5.8206,415
5.8223,332
5.824,277
5.827,244
5.8286,278
5.8315,393
5.8332,510
5.8348,525
5.8366,444
5.8383,355
5.8401,291
5.8434,250
5.8455,254
5.8465,347
5.8492,475
5.8515,533
5.8535,472
5.8545,378
5.8562,304
5.8579,256
5.8616,237
5.8626,301
5.8643,428
5.8674,523
5.8691,497
5.871,405
5.872,322
5.8737,268
5.8767,235
5.8784,267
5.8814,382
5.8831,499
5.8852,514
5.8875,431
5.889,340
5.8905,276
5.8921,235
5.8939,238
5.8973,329
5.8993,459
5.9003,517
5.9034,457
5.905,364
5.9074,289
5.9079,242
5.9112,223
5.913,286
5.914,412
5.9174,506
5.9191,480
5.9208,387
5.9225,304
5.9248,249
5.9265,215
5.9282,247
5.9298,362
5.9331,479
5.9351,496
5.9361,414
5.9394,323
5.9411,259
5.9428,218
5.9445,219
5.9461,309
5.9493,436
5.951,493
5.9527,432
5.9544,337
5.9571,263
5.9589,215
5.9606,194
5.9623,257
5.9641,383
5.9658,477
5.9694,451
5.9711,358
5.9729,273
5.9747,217
5.9763,183
5.978,213
5.9814,326
5.9834,446
5.9845,464
5.9874,382
5.9895,291
5.9905,227
5.9921,184
5.9938,185
5.9971,275
5.9988,403
6.0005,464
6.0022,405
6.004,310
6.007,237
6.0083,189
6.01,170
6.0133,232
6.015,361
6.0168,460
6.0188,439
6.0214,350
6.0228,271
6.0245,219
6.0262,188
6.028,222
6.0297,339
6.0336,463
6.0346,485
6.0366,408
6.0394,321
6.0408,262
6.0425,225
6.0441,231
6.0475,325
6.0475,458
6.0519,523
6.0534,468
6.055,378
6.0568,306
6.0585,260
6.0615,242
6.0636,305
6.0647,433
6.0663,529
6.0696,508
6.0717,417
6.0728,334
6.0749,279
6.0759,246
6.079,276
6.0811,391
6.0821,510
6.0854,531
6.0872,451
6.089,363
6.0908,298
6.0926,257
6.0943,258
6.096,349
6.0996,479
6.1014,541
6.1038,484
6.1058,391
6.1072,316
6.1096,269
6.111,248
6.1135,309
6.1149,435
6.1162,531
6.119,510
6.1217,419
6.1238,336
6.1255,280
6.1277,246
6.1291,275
6.1312,389
6.1323,508
6.1358,529
6.1403,449
6.1403,361
6.1413,296
6.1445,255
6.1456,255
6.1469,345
6.1488,474
6.1503,537
6.1527,480
6.1555,387
6.1572,312
6.1586,263
6.1602,241
6.162,300
6.1638,426
6.1673,523
6.1689,503
6.1706,414
6.1723,332
6.1754,278
6.1775,246
6.1785,275
6.1802,389
6.1836,508
6.1855,530
6.1878,451
6.1888,362
6.1906,296
6.1923,254
6.194,255
6.1972,345
6.1994,474
6.2018,538
6.2038,483
6.2051,390
6.2061,315
6.2079,267
6.2116,245
6.2129,305
6.2139,431
6.2175,528
6.2188,508
6.2211,416
6.2236,333
6.2253,277
6.2271,242
6.2289,271
6.2307,383
6.2323,504
6.2358,528
6.2375,449
6.2386,360
6.2403,295
6.2421,253
6.2439,252
6.2474,341
6.2486,470
6.2504,533
6.2521,478
6.2555,385
6.257,310
6.2587,263
6.2604,242
6.2621,301
6.2638,427
6.2674,525
6.2696,507
6.2706,416
6.2724,332
6.2741,275
6.2758,240
6.2795,268
6.2805,380
6.2822,500
6.2855,525
6.2873,446
6.2891,357
6.2908,290
6.2925,247
6.2942,243
6.2959,326
6.2992,452
6.3009,514
6.3026,457
6.3043,363
6.3061,287
6.3095,239
6.3112,217
6.313,275
6.3145,402
6.3162,502
6.318,485
6.3197,395
6.3235,313
6.3245,260
6.3262,228
6.3288,257
6.3305,369
6.3322,490
6.3362,515
6.3377,437
6.3387,347
6.3404,282
6.3421,242
6.3455,242
6.3471,331
6.3488,462
6.3503,530
6.352,477
6.3551,386
6.3569,312
6.3586,265
6.3603,243
6.3621,301
6.3639,427
6.3674,527
6.3696,509
6.3706,419
6.3724,335
6.3742,279
6.3775,244
6.3786,269
6.3802,380
6.3837,500
6.3851,525
6.3868,446
6.3886,356
6.39,290
6.3936,250
6.3946,249
6.3963,336
6.398,466
6.4012,533
6.4032,481
6.4043,388
6.4061,310
6.4093,258
6.4114,227
6.4124,273
6.4155,385
6.4169,468
6.4199,429
6.4216,310
6.4238,196
6.4248,104
6.4265,32
6.4283,25
6.4313,110
6.4331,218
6.4349,245
6.4377,182
6.439,115
6.4408,83
6.4426,92
6.4444,162
6.4461,317
6.4492,498
6.4509,594
6.4526,548
6.4548,447
6.4558,357
6.4597,287
6.4607,248
6.4624,292
6.4641,410
6.4675,508
6.4696,493
6.4707,407
6.4725,326
6.4742,275
6.4759,243
6.4794,269
6.481,381
6.4827,503
6.4844,531
6.4875,453
6.4893,363
6.4912,296
6.493,254
6.4946,250
6.4963,335
6.498,464
6.5015,532
6.5039,480
6.5049,386
6.5067,310
6.5085,262
6.5101,238
6.5136,294
6.515,419
6.517,520
6.5212,506
6.5212,416
6.5236,331
6.5254,274
6.5271,237
6.5289,260
6.5315,369
6.5329,489
6.5363,519
6.5378,441
6.5391,351
6.5415,285
6.5429,244
6.5455,240
6.5461,324
6.5493,453
6.551,522
6.5531,469
6.5555,375
6.5576,298
6.5581,249
6.5617,226
6.5628,282
6.5649,407
6.5659,508
6.5699,493
6.5709,402
6.5732,316
6.576,259
6.5777,223
6.5791,246
6.5815,354
6.5833,475
6.5857,504
6.5876,426
6.5895,335
6.5905,269
6.5926,227
6.5955,223
6.5977,308
6.5987,437
6.6008,506
6.6033,454
6.6047,359
6.6075,282
6.609,232
6.61,207
6.6135,261
6.6151,384
6.6161,485
6.6197,471
6.6217,381
6.6238,296
6.6252,239
6.6262,203
6.6293,224
6.631,330
6.6327,452
6.6344,481
6.6374,404
6.6396,313
6.6406,247
6.6422,205
6.6456,200
6.647,283
6.6495,412
6.6506,483
6.6537,430
6.6547,335
6.6564,259
6.6582,209
6.6616,183
6.6626,235
6.6643,356
6.6659,459
6.6693,445
6.6703,354
6.672,269
6.6752,213
6.677,178
6.6786,201
6.6804,308
6.6822,432
6.6858,464
6.6878,390
6.6895,300
6.692,236
6.6937,196
6.6953,193
6.6976,279
6.6996,413
6.7023,490
6.7033,445
6.7053,356
6.7067,286
6.7091,242
6.7112,221
6.7122,278
6.714,404
6.7158,509
6.7187,499
6.7213,412
6.7219,329
6.7254,275
6.7272,242
6.7289,266
6.7306,375
6.7323,498
6.7357,531
6.7375,457
6.7396,367
6.7406,300
6.7422,259
6.7451,253
6.7468,338
6.7485,469
6.7507,543
6.7535,496
6.7552,403
6.757,325
6.7596,275
6.7614,250
6.7628,301
6.7644,424
6.7661,527
6.7696,516
6.7717,426
6.7727,341
6.7748,283
6.7776,247
6.7794,268
6.7811,375
6.7829,497
6.7847,530
6.7878,456
6.7899,366
6.7909,299
6.7926,257
6.7947,250
6.7974,331
6.7991,461
6.8008,534
6.8025,486
6.8043,392
6.8074,314
6.8091,264
6.8108,239
6.8126,290
6.8143,414
6.8161,519
6.8196,510
6.8214,422
6.8232,338
6.8255,282
6.8265,246
6.8281,266
6.8316,373
6.8338,495
6.8348,530
6.8379,456
6.8379,365
6.841,297
6.8427,253
6.8443,247
6.846,328
6.8495,457
6.851,531
6.8531,484
6.8542,392
6.8576,315
6.8593,266
6.8611,241
6.8628,292
6.8646,415
6.8662,520
6.8694,512
6.8711,424
6.8737,339
6.8748,280
6.8779,243
6.8795,262
6.8813,369
6.8835,492
6.8849,528
6.8882,455
6.8898,366
6.8914,300
6.8924,258
6.8942,251
6.896,331
6.8995,459
6.9005,531
6.9036,484
6.9054,391
6.9072,313
6.9089,264
6.9106,239
6.9123,290
6.9139,414
6.9169,521
6.9186,513
6.9203,425
6.9221,341
6.9256,283
6.9273,246
6.929,266
6.9307,370
6.9336,492
6.9357,526
6.9367,452
6.9385,361
6.9402,293
6.942,249
6.9455,242
6.9475,322
6.9485,451
6.9509,527
6.9538,480
6.9548,385
6.9565,305
6.9582,254
6.9599,226
6.9632,275
6.9646,397
6.9662,501
6.9695,494
6.9713,405
6.9735,318
6.9745,260
6.9776,224
6.9794,244
6.9811,351
6.9833,476
6.9843,513
6.9875,440
6.9891,349
6.9907,281
6.9923,238
6.9939,231
6.9973,311
6.9989,442
7.0006,519
7.0022,476
7.0039,385
7.0073,309
7.009,263
7.0107,239
7.0133,289
7.0154,413
7.0165,520
7.0181,514
7.0199,426
7.0233,341
7.0251,281
7.0268,245
7.0285,263
7.0302,368
7.032,492
7.035,530
7.0375,457
7.039,367
7.0407,298
7.0424,254
7.0441,244
7.0474,321
7.0491,450
7.0511,526
7.0533,482
7.0546,391
7.0573,313
7.059,264
7.0607,237
7.0624,285
7.0641,407
7.0675,512
7.0691,503
7.0709,407
7.0728,310
7.0745,237
7.0763,182
7.0781,176
7.0798,251
7.0834,342
7.0851,345
7.0869,238
7.0887,119
7.0904,32
7.092,0
7.0954,0
7.0971,71
7.0987,213
7.1004,325
7.1021,339
7.1039,317
7.1073,304
7.109,296
7.1107,290
7.1124,343
7.114,456
7.1158,551
7.1196,534
7.1206,433
7.1223,338
7.1244,273
7.1271,234
7.1288,252
7.1305,359
7.1321,487
7.1354,530
7.137,460
7.1386,370
7.1413,302
7.143,260
7.1448,250
7.1465,327
7.1481,456
7.1513,534
7.1532,491
7.1554,399
7.1575,322
7.1585,272
7.1602,246
7.1618,293
7.1652,414
7.1669,521
7.1698,517
7.1716,430
7.173,343
7.1746,283
7.1763,246
7.1779,261
7.1813,365
7.183,489
7.1855,530
7.187,458
7.188,366
7.191,295
7.1927,250
7.1943,239
7.1973,316
7.199,447
7.2006,527
7.2036,485
7.205,393
7.2067,315
7.2084,263
7.2101,235
7.2132,280
7.2147,401
7.2175,508
7.2197,506
7.2209,418
7.2237,331
7.2254,271
7.2271,233
7.2288,247
7.2305,348
7.2321,472
7.2356,512
7.2375,441
7.2385,349
7.2406,279
7.2434,235
7.2444,224
7.2465,299
7.2492,429
7.2513,508
7.2522,467
7.2553,374
7.2571,294
7.2587,242
7.2604,212
7.2622,255
7.2639,375
7.2673,483
7.2696,481
7.2706,394
7.2723,307
7.2753,248
7.2774,210
7.2792,223
7.2814,324
7.2832,450
7.2857,492
7.2872,422
7.2888,329
7.2905,260
7.2922,215
7.2952,203
7.2969,278
7.2986,405
7.3003,486
7.3037,444
7.3055,349
7.3068,269
7.3085,217
7.3101,188
7.3118,232
7.3149,353
7.3165,462
7.3182,461
7.3199,374
7.3234,286
7.325,227
7.3267,188
7.3283,202
7.3311,303
7.3327,430
7.3345,474
7.3375,404
7.3392,310
7.3409,242
7.3426,198
7.3453,187
7.3469,264
7.349,396
7.3506,481
7.3528,445
7.3554,355
7.3571,279
7.3588,231
7.3605,205
7.3623,251
7.3657,374
7.3671,487
7.3689,493
7.3717,410
7.3727,328
7.374,271
7.3774,236
7.3791,252
7.3809,355
7.3827,484
7.3844,530
7.3868,464
7.3896,374
7.3909,306
7.3927,263
7.3944,251
7.3961,324
7.3979,454
7.4014,537
7.403,499
7.4048,406
7.4065,328
7.4083,277
7.41,248
7.4134,291
7.4152,410
7.417,520
7.4187,522
7.4207,437
7.4235,351
7.4252,290
7.4269,252
7.4286,265
7.4303,367
7.432,492
7.4355,537
7.4369,469
7.438,378
7.4398,307
7.4433,262
7.4451,249
7.4471,322
7.4481,450
7.4515,533
7.4531,496
7.4548,403
7.4568,324
7.4595,273
7.4612,244
7.463,286
7.4646,405
7.4663,516
7.468,519
7.4715,432
7.4733,345
7.475,284
7.4767,246
7.4784,256
7.48,357
7.4834,482
7.485,529
7.488,460
7.489,368
7.4905,298
7.4921,254
7.4953,241
7.4969,314
7.4985,443
7.5013,527
7.5038,490
7.5052,398
7.5062,318
7.5079,266
7.5113,237
7.5136,278
7.5146,396
7.5163,507
7.5188,511
7.5209,426
7.5241,339
7.5256,280
7.5266,242
7.5284,254
7.5301,355
7.5319,481
7.5351,529
7.5369,462
7.5387,370
7.5405,299
7.5422,254
7.5455,239
7.5473,311
7.5489,441
7.5509,527
7.5526,493
7.5544,401
7.5575,322
7.5593,270
7.5614,241
7.5624,281
7.565,399
7.567,510
7.5699,514
7.5713,429
7.5737,342
7.5755,282
7.5772,244
7.5782,255
7.5811,356
7.5828,483
7.586,531
7.5876,464
7.5887,371
7.5908,299
7.5935,254
7.5945,240
7.5963,312
7.5994,441
7.6017,527
7.6031,491
7.6057,398
7.6074,315
7.6091,260
7.6112,227
7.6122,264
7.6159,381
7.6173,492
7.6183,497
7.6201,413
7.6238,324
7.6248,263
7.627,224
7.628,234
7.6298,332
7.6334,459
7.6355,509
7.6378,445
7.6396,355
7.6414,286
7.6431,242
7.6449,229
7.6477,300
7.6495,431
7.6513,518
7.6533,485
7.6543,394
7.6561,315
7.6597,264
7.6612,236
7.6629,278
7.6647,398
7.6664,512
7.6681,519
7.6716,434
7.6734,347
7.6749,285
7.6767,245
7.6784,254
7.6802,352
7.6837,478
7.6855,529
7.6869,463
7.689,372
7.6913,301
7.6936,255
7.6946,241
7.6964,310
7.6995,439
7.7013,526
7.7033,493
7.7044,400
7.7074,320
7.7087,268
7.7105,238
7.7123,277
7.714,395
7.7171,509
7.7193,517
7.7209,431
7.7219,339
7.7253,269
7.7271,219
7.7288,213
7.7306,290
7.7324,392
7.7341,410
7.7375,304
7.7396,174
7.7407,69
7.7425,0
7.7442,0
7.7474,38
7.7497,159
7.7507,259
7.7525,255
7.7557,212
7.7571,203
7.7589,221
7.7607,245
7.7628,314
7.7655,445
7.7668,556
7.7688,555
7.7717,457
7.773,357
7.774,283
7.7772,237
7.7792,241
7.7816,336
7.7833,465
7.7855,519
7.7871,459
7.7882,370
7.79,301
7.7936,258
7.7955,244
7.7965,313
7.8,441
7.801,530
7.8032,498
7.8056,407
7.8073,326
7.8091,273
7.8111,243
7.8121,281
7.8156,399
7.8173,512
7.8195,522
7.8206,437
7.8223,349
7.8253,286
7.827,246
7.8288,253
7.8305,348
7.8322,475
7.8357,527
7.8374,464
7.8388,372
7.8404,299
7.8422,254
7.8456,237
7.8474,305
7.8491,433
7.8508,521
7.8526,489
7.8544,397
7.8561,316
7.8578,263
7.8613,231
7.8629,267
7.8648,384
7.8666,497
7.8683,509
7.8701,426
7.8737,337
7.8747,275
7.8771,234
7.8781,240
7.8816,334
7.8827,462
7.8854,514
7.887,451
7.8893,357
7.8903,284
7.8932,237
7.8956,220
7.8972,287
7.8994,415
7.901,504
7.9036,475
7.9054,383
7.9069,302
7.9086,248
7.9104,216
7.9121,251
7.9138,367
7.9171,481
7.9188,492
7.9212,408
7.9222,318
7.9252,255
7.9269,214
7.9287,219
7.9303,312
7.932,440
7.9354,494
7.9376,430
7.939,336
7.9401,265
7.9434,218
7.945,200
7.9468,265
7.9485,391
7.9501,481
7.9536,450
7.9554,357
7.9568,275
7.9588,222
7.9598,189
7.9633,224
7.9651,338
7.9668,453
7.9697,465
7.9711,381
7.9722,291
7.974,229
7.9773,188
7.979,193
7.9807,286
7.9824,414
7.9841,469
7.9874,407
7.9885,312
7.9902,242
7.9935,197
7.9953,182
7.9971,249
7.9989,379
8.0006,473
8.0036,448
8.0049,359
8.0066,281
8.0084,231
8.0101,203
8.0118,240
8.0154,359
8.0175,478
8.019,495
8.02,416
8.0231,331
8.0254,272
8.0268,235
8.0296,243
8.0311,340
8.0334,470
8.0344,529
8.0375,471
8.0396,381
8.0406,310
8.0423,265
8.0453,247
8.0471,313
8.0489,441
8.0506,533
8.0534,505
8.0557,414
8.0574,334
8.0591,280
8.0608,248
8.0626,282
8.0647,397
8.0673,513
8.0693,528
8.071,446
8.072,358
8.0752,293
8.077,253
8.0788,257
8.0805,351
8.0835,479
8.0857,537
8.0867,477
8.0888,385
8.0899,311
8.0935,265
8.0955,247
8.0965,311
8.0981,438
8.0998,530
8.1036,503
8.1046,412
8.1064,330
8.1082,277
8.1099,245
8.1128,277
8.114,392
8.1174,508
8.1195,524
8.1205,442
8.1223,354
8.124,291
8.1258,250
8.1293,254
8.1307,347
8.1323,475
8.134,533
8.1371,473
8.1389,381
8.1404,307
8.1421,259
8.1438,241
8.1474,305
8.1488,433
8.1503,526
8.1538,500
8.1549,409
8.1566,328
8.1584,274
8.1615,242
8.1628,275
8.1645,389
8.1663,507
8.1696,523
8.1711,441
8.1728,353
8.1746,290
8.1762,250
8.1779,253
8.1814,344
8.1831,473
8.1844,532
8.1861,473
8.1879,380
8.1914,307
8.1931,260
8.1949,242
8.1966,305
8.1983,432
8.2,526
8.2034,501
8.2044,410
8.2061,328
8.2079,274
8.2108,243
8.2125,275
8.2143,390
8.216,507
8.2194,525
8.2208,443
8.2225,355
8.2242,290
8.2259,250
8.2294,252
8.2311,344
8.2328,472
8.2345,532
8.2376,473
8.2391,380
8.2408,305
8.2425,258
8.2442,238
8.2458,300
8.2491,427
8.2508,522
8.2536,499
8.2547,407
8.2564,325
8.2582,269
8.2599,234
8.2633,262
8.2651,372
8.2669,487
8.2695,504
8.2715,422
8.2733,332
8.2749,269
8.2766,228
8.2797,229
8.2813,319
8.2826,449
8.2857,510
8.2875,453
8.2896,362
8.2907,290
8.2924,244
8.2939,226
8.2957,289
8.2989,417
8.3007,513
8.302,491
8.3056,401
8.3074,319
8.3091,265
8.3109,233
8.3126,265
8.3144,381
8.3158,501
8.3194,523
8.3208,444
8.3225,356
8.3253,292
8.3271,252
8.329,253
8.33,343
8.3334,471
8.3357,532
8.3367,475
8.3385,383
8.3403,308
8.3434,262
8.3451,241
8.3463,302
8.348,428
8.3515,524
8.3532,503
8.3549,412
8.3566,330
8.3583,275
8.3599,242
8.3633,272
8.365,386
8.3666,505
8.3682,526
8.3713,447
8.3729,358
8.3746,291
8.3763,245
8.378,238
8.3813,317
8.3829,433
8.3845,477
8.3862,395
8.388,271
8.3897,164
8.3928,78
8.3944,23
8.396,57
8.399,164
8.4007,254
8.4035,239
8.4048,165
8.406,106
8.4094,87
8.4112,112
8.4129,212
8.4146,384
8.4162,542
8.419,581
8.4202,502
8.422,403
8.4253,321
8.4269,263
8.4286,250
8.4303,329
8.4333,455
8.435,517
8.4367,463
8.4387,374
8.4398,302
8.443,258
8.4451,239
8.4467,301
8.4493,428
8.4509,526
8.4525,505
8.4541,414
8.4559,331
8.4593,275
8.4609,241
8.463,269
8.464,381
8.4674,501
8.4692,524
8.4702,445
8.4735,356
8.4745,290
8.4762,249
8.4779,248
8.4814,336
8.4831,465
8.4848,529
8.4863,473
8.4881,380
8.4898,305
8.4933,256
8.4943,234
8.4959,292
8.4993,417
8.5014,515
8.5027,495
8.5051,404
8.5068,322
8.5085,267
8.5101,232
8.5131,258
8.5148,369
8.5165,488
8.5194,511
8.5217,432
8.5233,342
8.5251,276
8.5267,235
8.5283,234
8.5299,321
8.5336,451
8.5346,516
8.5362,461
8.538,367
8.5413,291
8.5429,243
8.5445,220
8.5461,278
8.5491,403
8.5504,500
8.5521,481
8.5554,390
8.557,306
8.5586,251
8.5602,216
8.5618,241
8.5649,351
8.5665,470
8.5681,494
8.5715,415
8.5731,324
8.5748,258
8.5765,216
8.5781,213
8.5813,300
8.5826,429
8.5843,495
8.5877,440
8.5894,346
8.5911,270
8.5927,222
8.5944,199
8.5976,255
8.5993,379
8.601,477
8.6028,458
8.6049,367
8.606,283
8.6093,226
8.6109,190
8.6125,215
8.6155,323
8.6174,444
8.6201,469
8.6215,389
8.6233,296
8.6249,231
8.6266,187
8.6282,184
8.6315,270
8.6331,399
8.6349,466
8.637,413
8.638,318
8.6413,244
8.6429,196
8.6446,174
8.6462,232
8.6481,359
8.6515,462
8.6532,447
8.6548,360
8.6565,279
8.6582,226
8.6599,195
8.6633,223
8.665,335
8.6667,461
8.6684,491
8.6714,417
8.6731,330
8.6749,269
8.6765,230
8.6795,230
8.6812,319
8.6829,452
8.6845,522
8.6862,472
8.6879,382
8.6913,309
8.693,263
8.6947,242
8.6964,300
8.698,427
8.7012,528
8.7029,514
8.7047,424
8.7064,342
8.7091,286
8.7109,251
8.7126,276
8.714,386
8.7172,506
8.7189,533
8.7206,455
8.7223,366
8.724,299
8.7275,257
8.7291,253
8.7308,340
8.7325,468
8.7342,538
8.7376,485
8.7394,391
8.741,316
8.7428,267
8.7445,243
8.7462,298
8.7479,423
8.7512,524
8.7528,510
8.7551,421
8.7563,337
8.7582,279
8.7616,244
8.7626,267
8.7651,376
8.7671,497
8.769,527
8.771,450
8.7729,361
8.7739,294
8.7775,252
8.7785,249
8.7815,334
8.7831,464
8.7851,534
8.7862,483
8.7895,391
8.7915,316
8.7938,267
8.7955,243
8.7971,297
8.7989,421
8.8008,522
8.8036,509
8.8053,420
8.8069,336
8.8092,279
8.8109,245
8.812,269
8.8137,379
8.8171,500
8.8188,530
8.8206,453
8.8237,363
8.8254,296
8.827,254
8.8286,250
8.8308,334
8.8318,463
8.8351,535
8.8368,484
8.8386,392
8.8403,316
8.842,267
8.8453,243
8.8469,297
8.8486,422
8.8502,525
8.8531,512
8.8556,424
8.8562,340
8.8579,283
8.8611,248
8.8628,271
8.8644,380
8.866,502
8.8693,533
8.8715,457
8.872,367
8.8755,300
8.8776,257
8.8786,253
8.882,336
8.8828,465
8.8856,536
8.8877,487
8.8887,394
8.8913,318
8.8936,269
8.895,244
8.897,297
8.8995,421
8.9012,523
8.9045,511
8.9055,422
8.907,338
8.9086,281
8.9102,245
8.9119,266
8.9154,374
8.9171,494
8.9191,522
8.9201,443
8.922,348
8.9238,279
8.927,235
8.9286,229
8.9302,311
8.9331,441
8.9351,513
8.9361,464
8.9379,371
8.9397,294
8.9432,247
8.945,223
8.9475,278
8.948,403
8.9498,508
8.9533,499
8.9547,410
8.9566,326
8.9593,269
8.961,233
8.9627,255
8.9645,363
8.9662,487
8.9697,521
8.9714,449
8.9728,361
8.9745,296
8.9762,255
8.9789,251
8.9806,333
8.9824,462
8.9842,535
8.986,487
8.9877,394
8.9912,317
8.9928,267
8.9945,242
8.9962,293
8.9979,417
9.0012,520
9.0029,510
9.0047,421
9.0064,336
9.008,279
9.0115,243
9.0135,264
9.0145,371
9.0163,493
9.0196,527
9.0219,453
9.0229,363
9.0247,296
9.026,254
9.0291,247
9.0309,326
9.0327,450
9.0344,516
9.0374,458
9.0396,351
9.0407,256
9.0424,183
9.0455,127
9.0476,143
9.0486,228
9.0503,300
9.0521,266
9.0538,160
9.0561,67
9.0596,12
9.0606,0
9.0636,36
9.065,176
9.066,361
9.0699,470
9.0709,457
9.0727,404
9.0744,353
9.0761,307
9.0777,289
9.0809,354
9.0826,467
9.0842,529
9.0858,475
9.0894,379
9.091,302
9.0927,255
9.0944,233
9.0962,286
9.0979,412
9.1014,520
9.1039,514
9.1053,427
9.1063,344
9.108,286
9.1113,250
9.1129,269
9.1146,375
9.1163,498
9.1196,533
9.1214,459
9.1227,369
9.1244,300
9.1261,257
9.1278,249
9.1312,329
9.133,458
9.1346,533
9.1363,487
9.1394,394
9.1412,317
9.1429,267
9.1445,241
9.1462,290
9.1479,412
9.1511,517
9.1528,509
9.1546,421
9.1562,334
9.1579,275
9.1611,238
9.1627,256
9.1643,361
9.166,484
9.1692,521
9.1709,448
9.1728,357
9.1745,288
9.1762,245
9.1795,237
9.1811,316
9.1827,445
9.1845,521
9.1875,475
9.1892,381
9.1909,302
9.1925,251
9.1941,224
9.1958,272
9.199,394
9.2007,500
9.2038,494
9.2055,405
9.2072,318
9.2088,260
9.2104,222
9.212,239
9.2153,342
9.2171,466
9.2191,503
9.2201,429
9.2219,336
9.2254,269
9.2271,225
9.2288,215
9.2305,293
9.2322,422
9.2339,498
9.2373,452
9.2391,358
9.2408,279
9.2425,228
9.2441,201
9.2474,248
9.249,369
9.2513,476
9.2523,470
9.254,381
9.2573,293
9.259,234
9.2606,197
9.2622,213
9.2641,316
9.2675,442
9.2693,480
9.2711,406
9.2732,312
9.2743,243
9.2759,198
9.2794,187
9.2815,265
9.2829,394
9.2857,471
9.2874,426
9.2884,331
9.2901,253
9.2919,202
9.2954,174
9.2976,221
9.2986,343
9.3017,453
9.3034,450
9.3044,364
9.3061,279
9.3096,224
9.3109,190
9.3127,209
9.3148,315
9.3176,444
9.3194,487
9.3219,418
9.3234,329
9.3257,265
9.3267,224
9.3288,218
9.3298,298
9.3333,432
9.335,513
9.3367,474
9.3393,383
9.3414,308
9.3425,260
9.3441,235
9.3458,284
9.3493,408
9.351,517
9.3523,516
9.3554,429
9.357,344
9.3588,285
9.3605,248
9.3622,265
9.3639,369
9.3672,495
9.3692,536
9.3715,466
9.3732,375
9.3749,306
9.3766,262
9.3782,251
9.3798,327
9.383,456
9.3846,535
9.3865,493
9.3882,400
9.3899,322
9.3933,271
9.395,244
9.3968,290
9.3984,411
9.4001,520
9.4036,517
9.4054,430
9.4067,343
9.4088,284
9.4116,247
9.4133,262
9.4151,366
9.4168,491
9.4196,532
9.4213,462
9.4223,371
9.4258,302
9.4271,257
9.4282,247
9.4299,323
9.4334,452
9.4354,533
9.4365,492
9.4382,399
9.44,320
9.4435,270
9.4451,242
9.4469,287
9.4482,408
9.4517,516
9.4536,516
9.4547,429
9.4567,343
9.4584,283
9.46,245
9.4632,259
9.4649,362
9.4665,488
9.4681,531
9.4716,462
9.4734,371
9.4751,301
9.4768,256
9.4784,244
9.48,319
9.4834,448
9.4852,530
9.488,490
9.489,398
9.4907,319
9.4924,269
9.4942,241
9.4959,286
9.4993,407
9.5017,517
9.5042,518
9.5056,431
9.5074,345
9.5091,285
9.5107,247
9.5124,260
9.514,363
9.5173,488
9.5192,531
9.5203,462
9.5219,371
9.5252,301
9.5268,257
9.5284,245
9.5301,321
9.5335,452
9.5356,534
9.5374,494
9.5379,401
9.5415,322
9.5431,270
9.5447,242
9.5474,285
9.5489,406
9.5505,515
9.5523,516
9.5554,430
9.5571,343
9.5586,282
9.5617,243
9.5631,256
9.5649,357
9.5666,483
9.5687,527
9.5716,458
9.5726,367
9.5744,297
9.5761,253
9.5779,241
9.5811,313
9.5828,439
9.5844,518
9.586,475
9.5893,380
9.5903,299
9.5919,247
9.5951,217
9.5967,260
9.5983,379
9.5999,489
9.6033,491
9.6051,406
9.6067,319
9.6083,261
9.6099,225
9.6132,239
9.6149,342
9.6166,470
9.6182,516
9.6198,449
9.6234,358
9.625,289
9.6268,245
9.6285,233
9.6301,308
9.6318,439
9.6354,524
9.6364,488
9.6381,397
9.6399,319
9.6433,269
9.6455,241
9.6466,284
9.6482,404
9.6515,515
9.6538,519
9.6548,434
9.6548,348
9.6574,287
9.6603,249
9.6623,260
9.6644,360
9.6644,486
9.669,531
9.6704,464
9.6724,372
9.6744,301
9.6765,256
9.6765,242
9.6765,314
9.6765,443
9.6848,528
9.6872,491
9.6872,399
9.6911,320
9.6931,269
9.6951,240
9.6971,278
9.6991,392
9.7009,495
9.7029,487
9.7049,387
9.7069,281
9.7089,198
9.711,128
9.713,103
9.715,164
9.7155,257
9.7185,281
9.7185,196
9.7233,97
9.7233,32
9.7271,1
9.7283,14
9.7314,127
9.7314,321
9.7353,484
9.7373,507
9.7373,447
9.7373,380
9.7373,323
9.7373,279
9.7473,302
9.7473,405
9.7473,505
9.7531,502
9.7552,415
9.7552,328
9.7577,271
9.7577,236
9.7633,251
9.7633,353
9.7633,482
9.7696,531
9.7696,465
9.7722,375
9.7742,304
9.7762,259
9.7791,246
9.7791,317
9.7791,445
9.7791,530
9.7865,495
9.7885,403
9.7885,324
9.7924,272
9.7946,242
9.7967,282
9.7987,401
9.7987,512
9.8022,518
9.8022,433
9.8022,346
9.8022,285
9.8107,246
9.8107,255
9.8107,354
9.8107,480
9.8198,528
9.8219,461
9.8219,368
9.8219,297
9.8263,251
9.8282,236
9.8282,307
9.8336,435
9.8336,521
9.8375,486
9.8387,394
9.8387,313
9.8423,260
9.8423,229
9.847,268
9.848,385
9.8512,497
9.8528,504
9.8544,419
9.8561,331
9.8577,270
9.8577,230
9.8577,239
9.8577,335
9.8577,462
9.8695,511
9.8716,446
9.8733,353
9.8749,281
9.8764,235
9.8794,219
9.8815,287
9.8815,415
9.8815,500
9.886,465
9.8891,372
9.8891,291
9.8891,238
9.8891,207
9.8891,245
9.8891,362
9.8891,474
9.8891,482
9.9051,396
9.9051,307
9.9051,246
9.9051,206
9.9051,213
9.9149,309
9.9169,436
9.9189,486
9.9209,420
9.923,325
9.925,254
9.927,207
9.929,191
9.931,259
9.933,386
9.9351,474
9.9368,440
9.9368,346
9.9368,265
9.9368,212
9.9368,180
9.9368,217
9.9368,332
9.9368,447
9.9528,455
9.9528,369
9.9528,280
9.9578,219
9.9578,180
9.9578,188
9.9578,284
9.9578,413
9.9688,465
9.9688,402
9.9688,310
9.9688,243
9.9688,199
9.9688,187
9.9688,258
9.9688,388
9.9848,480
9.9861,451
9.9861,362
9.9861,285
9.9861,236
9.9861,209
9.9861,250
9.9861,372
10.0009,491
10.0029,503
10.0029,422
10.0029,337
10.0029,278
10.0029,241
10.0029,250
10.0029,348
10.0169,478
10.0169,531
10.0169,469
10.0169,377
10.0169,306
10.0169,262
10.0169,246
10.0169,315
10.0329,444
10.0329,533
10.0369,502
10.0369,410
10.0369,329
10.0369,276
10.0369,245
10.0369,281
10.0486,398
10.0486,512
10.0486,523
10.0486,439
10.0486,352
10.0579,289
10.0579,250
10.0579,256
10.0644,351
10.0669,478
10.0679,532
10.0711,469
10.0727,378
10.0743,306
10.076,261
10.0776,245
10.0802,313
10.0802,442
10.0802,531
10.0865,501
10.0865,409
10.0865,328
10.0865,274
10.0865,243
10.096,280
10.096,397
10.096,512
10.096,524
10.096,440
10.096,352
10.096,289
10.096,250
10.1119,256
10.1119,352
10.1119,480
10.1119,534
10.1119,471
10.1119,378
10.1119,305
10.1119,259
10.1279,243
10.1279,310
10.1279,439
10.1279,530
10.1279,501
10.1279,409
10.1279,329
10.1279,277
10.1445,246
10.1465,282
10.1485,399
10.1505,514
10.1505,527
10.1553,444
10.1573,356
10.1578,293
10.1595,253
10.1615,258
10.1636,353
10.1656,480
10.1696,535
10.1696,473
10.1696,382
10.1753,310
10.1753,264
10.1753,247
10.1753,314
10.1753,441
10.1753,532
10.1865,503
10.1885,411
10.1914,330
10.1926,276
10.1926,245
10.1926,279
10.1926,396
10.1926,511
10.2031,525
10.2031,442
10.2085,355
10.2096,292
10.2112,252
10.2128,258
10.2144,354
10.216,481
10.2192,536
10.2192,474
10.2231,381
10.2252,308
10.2273,262
10.2293,244
10.2293,309
10.2293,435
10.2293,525
10.2364,497
10.2388,405
10.2388,323
10.2388,271
10.2388,239
10.2388,273
10.2388,389
10.2388,505
10.2531,517
10.2549,432
10.2549,339
10.258,273
10.258,229
10.2623,232
10.2643,324
10.2663,452
10.2683,508
10.2704,447
10.2724,355
10.2744,283
10.2764,237
10.2784,220
10.2804,286
10.2824,415
10.2845,510
10.2862,484
10.2894,394
10.2894,313
10.2894,260
10.2894,229
10.2894,263
10.2894,379
10.2894,496
10.302,513
10.302,433
10.302,347
10.302,285
10.302,247
10.302,252
10.302,346
10.302,474
10.3191,533
10.3205,472
10.3205,379
10.3205,307
10.3205,260
10.3205,243
10.3205,307
10.3205,434
10.3339,527
10.3359,501
10.3379,409
10.3379,327
10.3379,273
10.3379,241
10.3379,272
10.3379,387
10.3499,503
10.3536,519
10.3536,438
10.3536,349
10.3582,286
10.3582,247
10.3582,252
10.3582,345
10.3659,472
10.3659,528
10.3703,462
10.3703,360
10.3703,275
10.3703,214
10.3703,174
10.3703,212
10.383,304
10.3854,363
10.387,299
10.3887,178
10.3905,74
10.3921,2
10.3939,0
10.3972,21
10.3988,140
10.4006,282
10.4033,350
10.4055,340
10.4073,322
10.409,310
10.4108,297
10.4125,307
10.4141,394
10.4159,506
10.4193,549
10.4211,475
10.4229,372
10.4246,293
10.4263,245
10.428,227
10.4314,293
10.4331,423
10.4356,521
10.4366,500
10.4384,410
10.4401,329
10.4419,274
10.4453,242
10.447,274
10.4487,387
10.4505,505
10.4523,523
10.4541,441
10.4558,352
10.4593,288
10.4611,247
10.4629,250
10.4647,340
10.4664,468
10.4681,529
10.4717,470
10.4728,377
10.4745,303
10.4763,255
10.4781,236
10.4816,298
10.4834,424
10.4851,519
10.4879,495
10.4889,403
10.4906,320
10.4924,265
10.494,232
10.4973,262
10.499,375
10.5007,493
10.5024,513
10.5041,432
10.5074,343
10.509,279
10.5106,238
10.5123,239
10.514,328
10.5172,456
10.5189,517
10.5207,458
10.5224,365
10.5241,291
10.5273,244
10.529,224
10.5306,285
10.5323,412
10.5357,508
10.5376,485
10.5396,392
10.5406,308
10.5427,252
10.5454,217
10.547,246
10.5497,358
10.5507,476
10.5528,495
10.5555,414
10.5565,322
10.5595,257
10.5601,214
10.5619,213
10.5652,302
10.567,431
10.5692,493
10.5702,436
10.5734,341
10.5748,268
10.5759,219
10.5793,198
10.581,258
10.5828,384
10.5845,480
10.5878,458
10.5888,366
10.5906,282
10.5919,226
10.5953,191
10.597,220
10.5986,330
10.6001,450
10.6034,471
10.605,389
10.6066,298
10.6082,233
10.6098,190
10.613,190
10.6146,278
10.6175,407
10.6197,470
10.6208,413
10.6225,317
10.6242,244
10.6276,195
10.6291,172
10.6307,231
10.6323,356
10.6341,454
10.6375,434
10.6392,343
10.6408,263
10.6424,209
10.644,178
10.6472,208
10.6488,322
10.6505,446
10.652,471
10.6554,395
10.657,308
10.6586,247
10.6602,208
10.6633,211
10.6649,302
10.6666,436
10.6682,504
10.6699,453
10.6732,363
10.6748,292
10.6765,248
10.6781,230
10.6813,291
10.683,420
10.6847,520
10.6864,502
10.6881,413
10.6898,333
10.6931,279
10.6948,246
10.6965,275
10.6993,388
10.701,508
10.7028,531
10.7045,452
10.7062,363
10.7079,297
10.7113,256
10.7131,255
10.7149,343
10.7165,470
10.7181,536
10.7199,481
10.7232,389
10.7249,315
10.7266,267
10.7283,245
10.7298,304
10.7331,430
10.7348,528
10.7364,509
10.7382,419
10.7398,335
10.7431,280
10.7448,246
10.7465,273
10.7481,384
10.7514,504
10.753,529
10.7548,450
10.7566,361
10.759,295
10.7613,253
10.7631,252
10.7649,340
10.7667,470
10.7684,536
10.77,482
10.7735,389
10.7752,313
10.7771,265
10.7788,243
10.7804,300
10.782,425
10.7852,523
10.7867,506
10.7884,415
10.79,331
10.7933,275
10.7951,241
10.7969,267
10.7981,378
10.8015,499
10.8029,525
10.8046,447
10.8063,358
10.8081,292
10.8116,251
10.8134,249
10.8152,336
10.817,465
10.819,532
10.8215,479
10.8239,386
10.825,310
10.8267,263
10.8284,240
10.8302,298
10.8319,425
10.8354,525
10.8377,508
10.8387,418
10.8404,334
10.8422,278
10.8454,243
10.8475,269
10.8485,381
10.8515,502
10.8528,531
10.8546,453
10.8564,363
10.8592,296
10.8613,254
10.8629,250
10.8646,335
10.8662,464
10.8696,531
10.8709,478
10.873,384
10.8741,308
10.8758,260
10.8797,237
10.8807,293
10.8825,418
10.8843,518
10.8877,503
10.8891,412
10.8902,327
10.8935,271
10.8952,236
10.8974,259
10.8984,369
10.9001,490
10.9039,518
10.9049,441
10.9068,351
10.9085,284
10.9101,241
10.9133,238
10.915,324
10.9167,453
10.9183,522
10.9211,470
10.9229,377
10.9246,300
10.9271,250
10.9292,225
10.9309,278
10.9326,398
10.9342,497
10.9371,480
10.9389,389
10.9406,303
10.9423,246
10.9439,210
10.9472,234
10.9489,343
10.9505,466
10.9537,496
10.9548,420
10.9565,331
10.9592,268
10.9612,228
10.9629,227
10.9646,313
10.9663,444
10.9679,514
10.9711,464
10.9729,372
10.9747,295
10.9764,247
10.9783,225
10.98,281
10.9834,408
10.9851,512
10.9868,501
10.9885,413
10.9903,329
10.9921,273
10.9954,237
10.9971,259
10.9988,368
11.0004,489
11.002,519
11.0054,443
11.0072,353
11.0089,287
11.0105,245
11.0121,240
11.0154,325
11.017,455
11.0187,526
11.0215,476
11.0229,383
11.0246,306
11.0262,257
11.0294,232
11.031,286
11.0326,410
11.0342,513
11.0375,501
11.0393,413
11.0414,327
11.0424,267
11.0441,226
11.0458,239
11.049,336
11.0506,445
11.0535,458
11.0551,358
11.0568,238
11.0586,139
11.0601,61
11.0635,24
11.0652,82
11.0669,193
11.0696,260
11.0714,219
11.0731,144
11.0741,95
11.0773,86
11.0794,126
11.0804,250
11.0821,431
11.0856,567
11.088,569
11.0893,476
11.0911,378
11.0927,301
11.0944,248
11.0961,256
11.0995,355
11.1012,474
11.1035,506
11.1045,433
11.1061,345
11.1078,282
11.1111,242
11.1126,238
11.1142,322
11.1173,452
11.1194,526
11.1204,478
11.1221,386
11.1255,309
11.1272,259
11.1293,235
11.1303,286
11.1321,410
11.1356,513
11.137,503
11.138,414
11.1414,329
11.143,272
11.1448,236
11.1464,257
11.1493,364
11.1511,487
11.1529,520
11.1547,444
11.1564,353
11.1582,285
11.1614,242
11.1631,235
11.1647,315
11.1675,445
11.1695,518
11.1705,470
11.1723,376
11.1739,299
11.1771,250
11.1788,225
11.1804,277
11.1822,400
11.1854,504
11.1871,494
11.1889,406
11.1905,319
11.1921,261
11.1953,225
11.197,244
11.1988,351
11.2004,474
11.202,508
11.2054,433
11.2071,341
11.2088,273
11.2104,230
11.2121,223
11.2155,303
11.2172,432
11.2189,506
11.2207,459
11.2224,365
11.224,287
11.2273,237
11.229,211
11.2307,260
11.2324,382
11.234,487
11.2376,478
11.2387,388
11.2403,301
11.242,242
11.2456,204
11.2466,222
11.2482,325
11.25,450
11.2536,484
11.2547,409
11.2564,315
11.2582,249
11.2615,205
11.2632,197
11.265,276
11.2667,405
11.2685,480
11.2702,434
11.272,339
11.2738,263
11.2772,212
11.2789,185
11.2807,233
11.2825,353
11.2842,459
11.2859,450
11.2894,359
11.2912,272
11.2929,213
11.2947,175
11.2965,192
11.2982,296
11.3015,420
11.3032,457
11.3055,383
11.3065,290
11.3097,224
11.3114,181
11.3135,173
11.3152,253
11.3175,384
11.3192,463
11.3212,420
11.3236,327
11.3253,254
11.3277,207
11.3294,183
11.3308,235
11.3325,360
11.3343,470
11.3374,469
11.3392,384
11.3408,302
11.3437,247
11.3455,214
11.3475,237
11.3486,345
11.3504,473
11.3537,514
11.3549,444
11.3563,356
11.3582,289
11.3614,248
11.3631,241
11.3649,322
11.3665,454
11.3692,534
11.3715,492
11.3732,400
11.375,323
11.3767,274
11.3784,247
11.3802,296
11.382,419
11.3838,525
11.3875,520
11.3886,431
11.3903,346
11.392,287
11.3955,250
11.3966,268
11.3984,374
11.4002,498
11.402,536
11.4051,464
11.4068,373
11.4086,303
11.4104,260
11.4122,251
11.414,329
11.4158,459
11.4193,537
11.4207,493
11.4226,399
11.4244,321
11.4262,271
11.428,244
11.4298,293
11.4333,415
11.4354,524
11.4364,519
11.4381,431
11.4399,345
11.4433,285
11.445,248
11.4467,264
11.4485,369
11.4503,493
11.452,533
11.4554,461
11.4571,370
11.4587,301
11.4614,257
11.4631,248
11.4649,326
11.4666,455
11.4693,535
11.4713,493
11.4727,399
11.4748,320
11.4775,271
11.4789,243
11.4813,291
11.4835,413
11.4852,521
11.4862,518
11.4894,431
11.4915,345
11.4926,284
11.4943,247
11.4961,263
11.4995,367
11.5017,492
11.5033,532
11.5051,462
11.5069,371
11.5091,302
11.5115,259
11.5129,250
11.5147,327
11.5169,457
11.5179,537
11.5215,496
11.5237,403
11.5248,324
11.5265,273
11.5282,245
11.5316,292
11.5329,415
11.5347,524
11.5368,520
11.5396,433
11.5413,345
11.5435,285
11.5448,248
11.5472,263
11.5494,368
11.5505,493
11.5521,536
11.5553,466
11.557,375
11.5587,305
11.5603,261
11.5621,251
11.5656,327
11.5674,456
11.5695,536
11.5712,494
11.5724,400
11.5743,319
11.5785,267
11.5795,239
11.5819,285
11.5836,408
11.585,519
11.5868,518
11.5886,431
11.5907,344
11.5935,282
11.5952,242
11.5967,254
11.5984,353
11.6016,475
11.6034,514
11.6055,442
11.6069,348
11.608,278
11.6112,233
11.6134,221
11.6144,296
11.6163,427
11.6181,509
11.6199,470
11.6235,377
11.6253,300
11.6275,251
11.6286,225
11.6304,271
11.6321,393
11.6355,504
11.6373,506
11.6395,420
11.6406,334
11.6436,276
11.6452,239
11.6462,254
11.6481,359
11.6499,486
11.6534,532
11.6555,464
11.6566,374
11.6597,304
11.6614,260
11.6632,249
11.6654,325
11.6665,455
11.6683,538
11.6701,499
11.6734,406
11.6749,326
11.6768,275
11.6786,245
11.6804,289
11.6821,410
11.6853,521
11.687,522
11.6889,437
11.6907,349
11.6924,287
11.6943,249
11.696,262
11.6992,364
11.7011,490
11.7028,534
11.7045,465
11.7062,374
11.7093,302
11.7106,254
11.7123,235
11.714,300
11.7158,417
11.7192,485
11.7207,426
11.7225,305
11.7256,196
11.727,108
11.7287,41
11.7304,49
11.732,142
11.7353,237
11.7368,236
11.7385,159
11.7402,92
11.742,60
11.7454,67
11.7471,150
11.7489,325
11.7507,511
11.7524,591
11.7541,533
11.7576,435
11.7587,350
11.7604,285
11.7621,255
11.7655,316
11.7672,437
11.769,518
11.7707,482
11.7729,391
11.7739,314
11.7773,266
11.7791,240
11.7808,284
11.7826,407
11.7843,519
11.786,521
11.7892,435
11.7911,348
11.7929,285
11.7947,246
11.7964,258
11.7982,359
11.7999,486
11.8032,532
11.805,463
11.8072,369
11.8088,297
11.8105,251
11.8121,238
11.8153,312
11.817,443
11.8186,527
11.8205,490
11.8222,397
11.8252,317
11.827,265
11.8287,235
11.8314,277
11.8327,396
11.8345,508
11.8374,512
11.8388,424
11.8405,335
11.8423,273
11.8454,233
11.847,245
11.8481,345
11.8515,473
11.854,521
11.8551,454
11.8567,362
11.8584,290
11.8599,245
11.8635,230
11.8652,302
11.867,431
11.8682,516
11.8716,480
11.8726,387
11.8744,305
11.8762,252
11.8795,221
11.8814,261
11.8825,380
11.8842,493
11.8859,498
11.8894,411
11.8912,322
11.893,261
11.8948,221
11.8969,230
11.8979,328
11.9015,457
11.9036,505
11.9046,437
11.9064,343
11.9082,271
11.91,224
11.9117,209
11.9152,279
11.9169,409
11.9186,493
11.9204,457
11.9221,364
11.9239,283
11.9272,230
11.929,199
11.9308,238
11.9325,356
11.9343,470
11.936,474
11.9394,388
11.9411,298
11.9428,236
11.9446,196
11.9462,204
11.9479,302
11.9511,431
11.9527,479
11.9546,412
11.9563,316
11.9591,244
11.9603,197
11.9621,180
11.9654,251
11.9672,380
11.9689,468
11.9707,432
11.9725,336
11.9755,255
11.9767,201
11.9784,169
11.9801,208
11.9818,326
11.9852,444
11.9872,454
11.9889,370
11.9916,283
11.9933,223
11.9951,186
11.9969,199
11.9987,300
12.0037,434
12.0037,489
12.0047,427
12.0065,336
12.0083,268
12.01,224
12.0135,213
12.0152,287
12.0171,422
12.0195,514
12.0214,485
12.0219,396
12.0254,318
12.027,267
12.0287,239
12.0305,280
12.0319,402
12.0352,519
12.0375,529
12.0385,444
12.0402,356
12.0419,292
12.0451,252
12.0468,260
12.0484,359
12.0501,488
12.0533,541
12.0544,477
12.0562,384
12.0579,312
12.0615,266
12.062,250
12.0656,320
12.0672,451
12.069,540
12.0708,508
12.0726,414
12.0743,331
12.0774,276
12.0791,245
12.0809,285
12.0826,406
12.0841,522
12.0876,532
12.089,447
12.0908,359
12.0929,294
12.094,253
12.0973,260
12.0986,358
12.1014,487
12.1037,540
12.1054,475
12.1075,381
12.1095,307
12.11,260
12.1135,242
12.1148,310
12.1165,440
12.1182,530
12.12,499
12.1235,406
12.1255,324
12.1266,270
12.1283,240
12.1301,279
12.1335,399
12.1355,516
12.1366,528
12.1383,444
12.1413,354
12.143,290
12.1448,249
12.1463,257
12.148,356
12.1515,486
12.1538,539
12.1549,475
12.1569,380
12.1579,306
12.1612,259
12.163,243
12.1647,312
12.1663,444
12.168,536
12.1715,507
12.1729,414
12.1745,330
12.1762,275
12.1793,242
12.181,280
12.1826,399
12.1841,517
12.1875,531
12.1888,446
12.1905,357
12.1922,291
12.1939,250
12.1972,256
12.1989,354
12.2006,484
12.2037,540
12.2056,476
12.2066,382
12.2083,308
12.2101,261
12.2135,245
12.2153,315
12.217,447
12.2187,539
12.2214,509
12.223,415
12.2247,332
12.2265,276
12.2281,243
12.2298,280
12.2331,400
12.2348,518
12.2369,531
12.2379,445
12.2413,354
12.2429,287
12.2446,245
12.2462,251
12.2493,349
12.2509,480
12.2525,536
12.2544,472
12.2561,377
12.2596,300
12.2612,250
12.263,229
12.2648,293
12.2665,422
12.2682,513
12.2717,482
12.2734,388
12.275,304
12.2769,248
12.2794,215
12.2811,251
12.2829,371
12.2852,491
12.2865,506
12.2883,424
12.2902,335
12.2919,272
12.2955,233
12.2972,240
12.2989,338
12.3007,470
12.3027,527
12.3055,464
12.3072,369
12.309,293
12.3107,246
12.3124,231
12.3142,301
12.3159,436
12.3193,533
12.3216,508
12.3226,416
12.3243,331
12.326,275
12.3294,242
12.3312,278
12.333,398
12.3348,517
12.3369,532
12.3393,447
12.3407,354
12.3424,285
12.3454,242
12.3468,247
12.3486,344
12.3517,478
12.3535,539
12.3549,478
12.3573,383
12.3585,306
12.3615,257
12.3626,238
12.3642,305
12.3659,437
12.3693,534
12.3714,509
12.3724,413
12.3742,324
12.376,260
12.3794,218
12.381,241
12.3823,345
12.384,446
12.3875,437
12.3892,318
12.391,191
12.3923,87
12.395,9
12.3973,0
12.3991,67
12.4006,188
12.4022,257
12.4054,217
12.407,151
12.4087,120
12.4105,137
12.412,191
12.4156,316
12.4173,486
12.4194,598
12.4205,571
12.4221,467
12.4254,366
12.4267,291
12.4295,243
12.4313,268
12.4331,381
12.4348,499
12.4365,518
12.4382,436
12.4399,348
12.4433,284
12.445,245
12.4468,250
12.4485,348
12.4502,482
12.4537,543
12.4554,482
12.4575,386
12.4585,309
12.4608,259
12.4619,239
12.4652,305
12.467,436
12.4686,534
12.4703,509
12.4721,415
12.4754,329
12.4771,271
12.4788,236
12.4804,269
12.4821,387
12.4854,508
12.4871,526
12.4888,443
12.49,352
12.4935,284
12.4945,242
12.4961,245
12.4994,340
12.5009,474
12.5026,536
12.5043,475
12.5076,378
12.509,298
12.5107,247
12.5124,227
12.514,293
12.5173,425
12.5194,523
12.5204,500
12.5221,406
12.5239,318
12.5273,260
12.529,224
12.5306,256
12.5323,375
12.5354,498
12.5368,518
12.5389,434
12.54,339
12.5433,271
12.545,227
12.5467,228
12.5483,321
12.55,454
12.5535,516
12.5545,455
12.5562,359
12.5579,281
12.5611,232
12.5627,212
12.5644,277
12.5662,407
12.5694,504
12.5705,479
12.5723,382
12.574,295
12.5774,236
12.5791,202
12.5808,234
12.5826,351
12.5843,473
12.586,493
12.5895,408
12.5916,312
12.593,245
12.5948,202
12.5965,205
12.5983,298
12.6016,432
12.6033,496
12.6057,436
12.6068,336
12.608,257
12.6115,205
12.6126,182
12.6143,244
12.6173,376
12.619,476
12.6208,454
12.6226,359
12.6243,272
12.626,212
12.6295,175
12.6316,206
12.6326,321
12.6344,445
12.6362,466
12.6397,383
12.6416,288
12.6434,220
12.6452,177
12.6473,177
12.6483,270
12.6501,406
12.6536,474
12.655,419
12.6568,325
12.6585,253
12.6613,207
12.6619,189
12.6651,256
12.6667,390
12.6685,495
12.6717,476
12.673,385
12.6748,300
12.6764,244
12.6781,211
12.6816,243
12.6833,364
12.685,492
12.6867,520
12.6883,443
12.69,354
12.6932,288
12.6949,246
12.696,248
12.6993,342
12.7009,477
12.7028,544
12.7039,488
12.7074,392
12.7091,314
12.7107,265
12.7133,243
12.7155,307
12.7173,439
12.719,542
12.7207,523
12.7225,430
12.7243,342
12.7261,282
12.7291,246
12.7308,275
12.7326,393
12.7344,517
12.7376,542
12.7394,461
12.7411,369
12.7429,299
12.7455,255
12.7468,254
12.7486,345
12.7504,477
12.7539,543
12.7557,485
12.757,388
12.7581,309
12.7616,259
12.7633,239
12.765,301
12.7669,433
12.7689,534
12.7717,514
12.7735,420
12.7745,332
12.7762,274
12.7778,238
12.7814,269
12.783,387
12.7847,512
12.7877,538
12.7895,456
12.7913,362
12.7929,292
12.7939,247
12.7974,245
12.7991,334
12.8008,466
12.8029,533
12.8057,477
12.8074,382
12.8091,305
12.8109,256
12.8127,235
12.8145,296
12.8161,427
12.8196,527
12.8218,507
12.8233,413
12.8257,326
12.8275,268
12.8292,235
12.831,265
12.8328,382
12.8355,508
12.8378,535
12.8388,455
12.8409,361
12.8434,291
12.8449,247
12.8466,246
12.8485,337
12.8518,471
12.8539,540
12.8558,485
12.8569,389
12.8587,310
12.8614,259
12.8635,236
12.8645,296
12.8676,427
12.87,530
12.8717,513
12.8733,421
12.8743,332
12.8761,272
12.8796,236
12.8814,263
12.8835,380
12.8845,505
12.8876,532
12.889,452
12.8907,359
12.8924,290
12.8956,248
12.8973,246
12.899,336
12.9008,469
12.9024,539
12.9051,485
12.907,389
12.9088,310
12.9105,259
12.9122,236
12.9139,296
12.9173,425
12.9191,527
12.9209,507
12.9226,410
12.9242,318
12.9259,256
12.9292,218
12.9309,244
12.9326,359
12.9372,485
12.9382,514
12.9382,435
12.9399,340
12.9433,271
12.945,228
12.9466,226
12.9483,314
12.95,449
12.9534,520
12.9556,467
12.9566,373
12.9583,296
12.9599,246
12.9637,223
12.9647,282
12.9663,414
12.968,519
12.9715,506
12.9726,415
12.9742,328
12.9759,270
12.9792,235
12.9809,262
12.9825,378
12.9849,504
12.9876,533
12.9894,455
12.9911,361
12.9927,291
12.9941,247
12.9958,244
12.9991,332
13.0008,466
13.0024,537
13.0042,485
13.0059,389
13.0093,310
13.011,260
13.0124,236
13.014,293
13.017,422
13.0187,526
13.0205,511
13.0222,419
13.0239,331
13.0272,272
13.029,237
13.0307,262
13.0318,375
13.0352,497
13.0374,521
13.0384,433
13.0401,327
13.0418,244
13.0451,181
13.0468,151
13.0489,207
13.05,303
13.0537,339
13.0547,254
13.0564,134
13.0582,39
13.0599,0
13.0632,0
13.0646,48
13.0663,191
13.0696,339
13.0713,394
13.0724,372
13.0741,339
13.0776,311
13.0793,286
13.0815,308
13.0825,411
13.0843,523
13.0873,541
13.0891,454
13.0908,355
13.0926,282
13.0943,239
13.0959,236
13.0992,326
13.1009,462
13.1025,537
13.1043,487
13.106,393
13.1093,313
13.111,262
13.1126,237
13.1138,294
13.1172,424
13.1188,529
13.1205,518
13.1222,426
13.1239,338
13.1273,277
13.129,240
13.1307,263
13.1323,375
13.134,501
13.1375,532
13.1392,454
13.141,361
13.1427,291
13.1445,245
13.1462,239
13.1479,324
13.1513,458
13.1529,533
13.1546,483
13.1563,387
13.158,306
13.1614,254
13.163,229
13.1647,284
13.1663,413
13.168,519
13.1711,509
13.1729,417
13.1746,327
13.1767,266
13.1793,228
13.1809,250
13.1821,362
13.1857,489
13.1875,522
13.1891,445
13.1902,351
13.1919,279
13.1954,233
13.1971,226
13.1989,311
13.2006,444
13.2037,519
13.2055,469
13.2066,372
13.2097,292
13.2114,241
13.2124,215
13.2141,269
13.2175,396
13.2196,502
13.2207,491
13.2224,399
13.224,311
13.2271,251
13.2289,213
13.2306,235
13.2332,344
13.2353,470
13.2375,503
13.2391,425
13.2407,329
13.2418,260
13.2452,214
13.2469,207
13.2485,291
13.2503,423
13.2539,498
13.2549,447
13.2566,349
13.2581,269
13.2598,217
13.2631,191
13.2648,245
13.267,372
13.2697,480
13.2707,470
13.2728,378
13.274,290
13.2775,229
13.2793,191
13.281,211
13.2827,319
13.2843,446
13.286,481
13.2892,403
13.2909,308
13.2926,238
13.2944,192
13.2962,185
13.2995,268
13.3012,402
13.3026,478
13.3044,430
13.3062,335
13.3079,257
13.3114,207
13.3132,183
13.315,238
13.3167,368
13.3185,478
13.3217,472
13.3237,384
13.3247,298
13.3265,240
13.3282,205
13.3299,229
13.3333,341
13.335,472
13.3372,511
13.3392,438
13.3415,346
13.3433,278
13.345,235
13.3467,231
13.3484,317
13.3518,454
13.3537,533
13.3555,488
13.357,395
13.3587,316
13.3604,264
13.3625,238
13.3652,291
13.3669,420
13.3695,528
13.3715,522
13.3725,432
13.3743,344
13.376,283
13.3794,245
13.3811,265
13.3825,374
13.3843,502
13.3876,538
13.3886,462
13.3903,369
13.3919,297
13.3951,252
13.3968,244
13.3984,327
13.4,462
13.4034,540
13.4052,494
13.4069,399
13.4086,318
13.4103,266
13.412,238
13.4154,290
13.4171,416
13.4188,524
13.4206,517
13.4223,426
13.424,338
13.4273,277
13.429,239
13.4307,258
13.4324,367
13.4341,495
13.4375,531
13.4393,456
13.4409,363
13.4426,292
13.4443,247
13.4473,239
13.449,321
13.4507,454
13.4524,532
13.4541,486
13.4559,391
13.4593,310
13.461,258
13.4626,232
13.4643,284
13.4661,410
13.4695,520
13.4712,515
13.4722,424
13.4754,336
13.4767,274
13.4787,236
13.4815,255
13.4831,364
13.4849,491
13.4866,529
13.4884,455
13.4901,362
13.4918,291
13.495,247
13.4964,239
13.498,321
13.5014,455
13.5035,534
13.5054,489
13.5071,394
13.5089,313
13.5105,261
13.512,234
13.5154,284
13.5171,410
13.5188,520
13.5205,515
13.5223,426
13.5239,338
13.5268,278
13.5285,239
13.5302,257
13.5335,365
13.5352,492
13.5369,531
13.5387,457
13.5403,364
13.5431,292
13.5449,247
13.5465,239
13.5481,319
13.5514,452
13.5535,532
13.5546,487
13.5563,391
13.558,310
13.5613,258
13.5629,231
13.5646,281
13.5663,407
13.568,516
13.5712,512
13.573,421
13.5747,328
13.5774,263
13.5779,222
13.5813,238
13.583,344
13.5853,473
13.5864,513
13.5881,440
13.5899,347
13.5933,275
13.595,229
13.5968,219
13.5985,299
13.6003,434
13.6038,515
13.6052,474
13.607,381
13.6088,302
13.6106,251
13.6124,223
13.6142,273
13.616,398
13.6195,509
13.6214,506
13.6224,418
13.6255,330
13.6275,271
13.6285,235
13.6302,254
13.6319,362
13.6353,490
13.6371,531
13.6388,459
13.6406,366
13.6437,294
13.6447,248
13.6465,239
13.6494,318
13.6509,451
13.6539,532
13.6556,489
13.657,394
13.6585,312
13.6611,260
13.6637,231
13.6647,278
13.6674,402
13.6697,512
13.6716,510
13.6734,421
13.6754,333
13.6777,273
13.6795,236
13.6807,254
13.6824,362
13.6856,490
13.6867,531
13.6884,455
13.6914,354
13.6932,272
13.6947,213
13.6975,185
13.6988,238
13.7007,337
13.704,382
13.7055,298
13.7065,167
13.7089,60
13.7106,0
13.7124,0
13.7141,21
13.7175,138
13.7191,263
13.7218,300
13.7228,277
13.7241,264
13.7276,265
13.7289,266
13.7316,300
13.7321,408
13.7355,527
13.7365,557
13.7383,473
13.74,367
13.7433,287
13.7449,238
13.7465,227
13.7482,306
13.7499,442
13.7532,528
13.7553,489
13.7563,397
13.758,317
13.7612,266
13.7628,237
13.7644,284
13.766,408
13.7694,519
13.7708,519
13.7725,430
13.7742,342
13.776,279
13.7793,239
13.781,254
13.7827,359
13.7844,488
13.7861,532
13.7878,461
13.7913,369
13.7929,296
13.7945,250
13.7962,238
13.7978,315
13.8012,447
13.803,530
13.8041,490
13.8059,395
13.8093,313
13.811,260
13.8126,230
13.8141,276
13.8157,400
13.8195,511
13.8205,512
13.8222,423
13.8239,334
13.8273,272
13.8289,233
13.8306,246
13.8322,350
13.8356,478
13.8369,522
13.8386,451
13.8403,357
13.842,285
13.8453,239
13.847,227
13.8487,303
13.8504,435
13.8521,519
13.8539,478
13.8572,383
13.8589,301
13.8606,247
13.8634,218
13.8639,262
13.8669,383
13.8685,494
13.8703,494
13.872,406
13.8754,316
13.8771,254
13.8788,214
13.8804,227
13.882,329
13.8858,457
13.8874,501
13.889,430
13.89,334
13.8932,262
13.895,215
13.8966,202
13.8983,278
13.9,409
13.9034,492
13.9046,453
13.9063,357
13.9079,275
13.9111,222
13.9128,191
13.9145,235
13.9163,356
13.9197,468
13.9214,470
13.9232,381
13.9249,290
13.9266,228
13.9282,188
13.9312,200
13.9326,301
13.9344,430
13.936,476
13.9378,406
13.9413,311
13.943,241
13.9447,194
13.9464,181
13.9482,255
13.9499,387
13.9537,472
13.9547,434
13.9564,339
13.9581,260
13.9598,209
13.9626,181
13.9644,227
13.9661,351
13.9694,468
13.9711,473
13.9729,388
13.9747,301
13.9765,243
13.9782,207
13.9813,223
13.9829,328
13.985,461
13.9875,510
13.9893,444
13.9909,354
13.9926,284
13.9943,241
13.996,230
13.9994,307
14.0011,441
14.003,529
14.0041,493
14.0074,401
14.0091,320
14.0108,269
14.0125,239
14.0142,283
14.016,406
14.0196,519
14.0206,523
14.0223,437
14.024,350
14.0271,287
14.0289,248
14.0306,260
14.0322,363
14.0356,490
14.0369,538
14.0386,468
14.0403,375
14.0419,302
14.0453,256
14.047,244
14.0487,318
14.0504,450
14.0522,536
14.054,499
14.0575,405
14.0588,323
14.06,270
14.0619,239
14.0651,282
14.0669,403
14.0689,516
14.0717,520
14.0734,434
14.0748,347
14.0766,284
14.0783,245
14.08,257
14.0834,359
14.0854,487
14.0865,535
14.0883,467
14.09,374
14.0934,301
14.0956,255
14.0966,241
14.0983,314
14.1,445
14.1034,532
14.1054,495
14.1074,401
14.1079,319
14.1114,265
14.1134,236
14.1144,278
14.1161,399
14.1197,513
14.1208,518
14.1225,432
14.1242,343
14.1258,280
14.1291,239
14.1307,250
14.1323,350
14.1356,479
14.1374,528
14.1393,460
14.141,368
14.1427,295
14.1444,249
14.1461,236
14.1478,310
14.151,441
14.153,529
14.1554,493
14.1568,400
14.1585,317
14.1601,264
14.1618,235
14.1651,277
14.1668,399
14.1694,512
14.1712,519
14.173,433
14.1747,346
14.1765,283
14.1781,244
14.1799,254
14.1833,356
14.185,484
14.187,534
14.188,467
14.1909,375
14.1926,301
14.1943,255
14.196,240
14.1993,311
14.2015,443
14.2029,530
14.204,494
14.2057,400
14.2087,318
14.2105,264
14.2121,234
14.2154,274
14.217,395
14.2187,509
14.2205,515
14.2223,428
14.2254,338
14.227,274
14.2285,230
14.2311,236
14.2332,332
14.2348,458
14.2364,506
14.2382,439
14.2416,346
14.2434,274
14.2454,229
14.2478,214
14.2494,286
14.2508,418
14.2539,507
14.2553,474
14.2571,383
14.2588,304
14.2606,252
14.2623,222
14.264,263
14.2674,384
14.2695,499
14.2709,507
14.2737,422
14.2755,334
14.2768,273
14.2785,235
14.2802,247
14.2819,348
14.2857,478
14.2872,530
14.2883,465
14.29,372
14.2935,300
14.2956,254
14.297,239
14.2993,310
14.301,440
14.3094,528
14.3094,495
14.3104,402
14.3108,321
14.3108,268
14.3118,238
14.3154,277
14.3175,397
14.3194,510
14.3217,518
14.3227,433
14.3244,344
14.326,281
14.3293,242
14.331,251
14.3326,350
14.3344,479
14.3361,531
14.338,466
14.3397,372
14.3434,296
14.3444,243
14.3461,218
14.3494,275
14.3516,387
14.3529,453
14.3548,389
14.3566,261
14.3583,146
14.3601,59
14.3631,1
14.365,22
14.3667,127
14.3698,243
14.3711,266
14.3732,202
14.3751,147
14.3774,137
14.3791,167
14.3809,239
14.3827,382
14.3844,531
14.3861,587
14.3896,515
14.3914,407
14.3934,318
14.3948,258
14.3975,233
14.3992,298
14.4009,426
14.4026,517
14.4043,487
14.4061,397
14.4078,319
14.4107,268
14.4121,239
14.4154,279
14.4174,399
14.4184,514
14.4201,523
14.4236,439
14.4253,350
14.4273,287
14.4283,247
14.4312,254
14.4329,351
14.4346,479
14.4367,532
14.4395,468
14.4408,375
14.4424,302
14.4442,256
14.4458,240
14.4491,309
14.4508,438
14.4525,526
14.4542,494
14.4559,402
14.4593,319
14.461,266
14.4627,235
14.4647,272
14.4663,391
14.4697,505
14.4713,515
14.4733,430
14.4744,342
14.4761,279
14.4778,239
14.4811,246
14.4828,342
14.4848,470
14.4876,522
14.4886,457
14.4903,364
14.492,291
14.4953,244
14.497,227
14.4986,296
14.5003,426
14.502,516
14.5049,484
14.5066,391
14.5082,308
14.5099,254
14.5131,221
14.5147,257
14.5163,374
14.518,489
14.5212,499
14.5226,414
14.5254,324
14.5266,261
14.5283,221
14.5309,228
14.5331,324
14.5348,453
14.5365,506
14.5394,441
14.541,346
14.5427,271
14.5444,223
14.5472,205
14.5495,273
14.5515,401
14.5529,490
14.5547,459
14.5564,365
14.5593,283
14.5614,229
14.5624,196
14.565,231
14.5676,346
14.5687,462
14.5705,472
14.5723,386
14.574,296
14.5774,233
14.5791,191
14.5808,197
14.5825,291
14.5842,420
14.5859,473
14.5892,408
14.5909,312
14.5923,240
14.594,193
14.5973,175
14.599,242
14.6008,371
14.6025,463
14.6042,433
14.606,340
14.6094,259
14.6111,205
14.6129,175
14.6146,212
14.6164,329
14.6181,450
14.6212,465
14.6226,384
14.6243,297
14.626,238
14.6293,200
14.6309,210
14.6326,309
14.6344,443
14.6375,502
14.639,442
14.6407,353
14.6425,283
14.6442,239
14.6475,224
14.6485,294
14.6502,427
14.6532,521
14.6547,495
14.6564,405
14.6591,325
14.6614,272
14.6631,241
14.6648,278
14.6673,397
14.6686,514
14.6703,528
14.672,445
14.6754,356
14.6771,292
14.6788,252
14.6805,258
14.6823,355
14.684,484
14.687,540
14.6887,478
14.6904,384
14.6922,311
14.6951,263
14.6968,245
14.6986,311
14.7002,441
14.7019,533
14.7054,504
14.7072,411
14.7089,328
14.7109,273
14.712,240
14.7137,274
14.7176,392
14.7186,510
14.7207,525
14.7236,441
14.7246,352
14.7277,288
14.7294,248
14.7304,252
14.7335,348
14.7348,478
14.7381,536
14.7398,474
14.7412,380
14.7436,306
14.7457,259
14.7467,241
14.7485,307
14.7503,437
14.7534,531
14.7552,503
14.7569,411
14.7587,327
14.7605,272
14.7622,240
14.7649,275
14.767,392
14.7686,510
14.7704,526
14.7721,443
14.7748,354
14.7766,288
14.7782,247
14.7799,252
14.7832,346
14.7849,476
14.7865,534
14.7882,472
14.791,379
14.7933,305
14.7949,258
14.7965,240
14.7991,306
14.8012,436
14.8028,530
14.8039,504
14.8073,411
14.809,328
14.8107,273
14.8124,240
14.8141,274
14.8174,391
14.819,509
14.8208,525
14.8225,443
14.8243,354
14.826,289
14.8294,249
14.8311,253
14.8328,347
14.8345,477
14.8362,535
14.8394,473
14.8417,379
14.8434,305
14.8444,258
14.8474,241
14.8484,306
14.8515,435
14.8536,529
14.8551,503
14.8561,409
14.8596,325
14.8613,270
14.8619,236
14.8657,269
14.8668,385
14.869,503
14.8717,519
14.8739,436
14.8755,347
14.8768,283
14.8796,243
14.8817,247
14.8828,341
14.8844,471
14.8862,530
14.8897,467
14.8914,371
14.8924,292
14.8941,241
14.8975,220
14.8992,282
14.901,410
14.9027,505
14.9049,479
14.9074,386
14.9096,303
14.9106,248
14.9124,216
14.9141,250
14.9175,367
14.9196,488
14.9211,508
14.9235,427
14.9256,338
14.9266,275
14.9284,234
14.9302,238
14.9336,331
14.935,463
14.9377,524
14.9394,466
14.9414,374
14.9436,300
14.9446,254
14.9464,236
14.9497,302
14.951,433
14.954,528
14.9553,504
14.9577,412
14.9596,329
14.9611,274
14.9636,240
14.9653,272
14.9677,388
14.9697,507
14.9717,525
14.9734,442
14.9757,352
14.9775,287
14.9789,246
14.9815,249
14.9834,342
14.9857,472
14.9867,533
14.9885,474
14.9903,380
14.9932,306
14.9955,258
14.9974,239
14.9992,304
15.0016,433
15.0026,527
15.0044,498
15.0061,397
15.0095,303
15.0108,235
15.0132,184
15.0145,193
15.0171,279
15.0188,366
15.0205,347
15.0234,230
15.0246,114
15.027,29
15.0286,0
15.0304,0
15.0328,88
15.0344,231
15.0361,326
15.0394,327
15.0411,307
15.0424,298
15.0452,292
15.0469,291
15.0486,357
15.0515,474
15.0531,554
15.0548,516
15.0572,411
15.0594,318
15.0599,259
15.0633,225
15.065,257
15.0666,375
15.0683,498
15.07,521
15.0718,443
15.0752,355
15.0765,291
15.0782,250
15.08,252
15.0831,344
15.0844,474
15.086,535
15.0891,476
15.0908,382
15.0926,306
15.0943,258
15.0976,238
15.0986,300
15.1003,428
15.102,524
15.1056,501
15.1074,409
15.1084,325
15.1102,270
15.112,236
15.1153,266
15.1169,380
15.1186,499
15.1201,519
15.1233,438
15.125,348
15.1267,283
15.1284,242
15.1301,243
15.1335,333
15.1352,464
15.1371,526
15.1381,468
15.1398,373
15.1433,297
15.1455,250
15.146,229
15.1478,289
15.1512,416
15.1529,513
15.1547,491
15.1559,400
15.1588,315
15.1605,260
15.1623,225
15.1641,255
15.1674,368
15.1695,487
15.1715,508
15.1725,427
15.1743,336
15.1761,271
15.1779,229
15.1813,229
15.1834,318
15.1844,448
15.1863,510
15.1894,452
15.1912,358
15.1934,282
15.1944,233
15.1962,211
15.1993,271
15.201,398
15.2025,495
15.2055,473
15.2073,381
15.2085,296
15.2103,239
15.2134,204
15.2147,231
15.2173,343
15.2192,462
15.2214,483
15.223,401
15.2247,309
15.2264,243
15.2295,201
15.2305,200
15.2326,288
15.2356,417
15.2366,480
15.2384,422
15.2401,325
15.2418,251
15.2453,201
15.247,179
15.2487,238
15.2514,364
15.2533,461
15.2543,439
15.2574,347
15.2595,262
15.2605,206
15.2622,171
15.2654,200
15.2674,312
15.2684,434
15.2714,456
15.2727,377
15.2745,287
15.2762,224
15.2779,185
15.2814,188
15.2831,279
15.2849,412
15.2867,480
15.2885,427
15.2902,335
15.292,264
15.2955,220
15.2969,203
15.2986,266
15.3003,397
15.3036,500
15.3047,485
15.3064,397
15.3082,316
15.31,264
15.3134,232
15.3152,263
15.317,379
15.3187,501
15.3204,526
15.3235,448
15.3251,360
15.3273,296
15.3284,255
15.3306,255
15.3332,345
15.3354,475
15.3365,542
15.3383,486
15.3413,394
15.343,318
15.3448,270
15.3466,248
15.3483,307
15.3501,434
15.3536,533
15.3547,514
15.3564,423
15.3591,339
15.3608,282
15.3626,247
15.364,273
15.3674,385
15.3691,505
15.3709,529
15.373,451
15.3754,362
15.3776,297
15.3789,255
15.3799,254
15.3834,343
15.3847,473
15.3865,539
15.3894,485
15.3908,392
15.3928,316
15.3948,268
15.3969,246
15.3989,304
15.4009,431
15.4029,530
15.405,513
15.4055,422
15.4075,339
15.4095,283
15.4116,248
15.4136,275
15.4156,386
15.4176,508
15.4206,532
15.4227,453
15.4247,364
15.4267,297
15.4287,255
15.4307,254
15.4327,342
15.4348,471
15.4371,538
15.4394,483
15.4414,390
15.4434,315
15.4454,267
15.4454,244
15.4495,303
15.4515,430
15.4525,529
15.4539,512
15.4574,422
15.4579,338
15.461,282
15.4621,248
15.4642,275
15.4667,388
15.4691,508
15.4711,534
15.4721,455
15.4748,365
15.4772,298
15.4785,255
15.4806,254
15.4832,342
15.4847,472
15.4873,540
15.4893,486
15.4911,393
15.4934,318
15.495,269
15.4971,246
15.4987,302
15.5008,428
15.5031,528
15.5054,511
15.5074,421
15.5094,337
15.5094,281
15.5115,246
15.5155,273
15.5165,385
15.5182,506
15.5203,532
15.5231,453
15.5251,363
15.5261,296
15.5291,254
15.5308,251
15.5324,338
15.5339,466
15.537,532
15.5384,479
15.5405,385
15.5425,309
15.5445,261
15.5465,239
15.549,295
15.5506,421
15.5533,520
15.5553,503
15.5573,410
15.5593,322
15.5613,262
15.5634,224
15.5644,247
15.5666,356
15.5686,477
15.5707,503
15.5727,426
15.5747,335
15.5756,269
15.5776,227
15.5801,225
15.5822,312
15.5842,444
15.5872,515
15.5877,464
15.5897,373
15.5918,298
15.5938,251
15.5955,229
15.5983,286
15.6003,412
15.6023,515
15.6044,500
15.6064,411
15.6084,328
15.6114,273
15.6134,240
15.6155,266
15.6175,378
15.6195,500
15.6215,529
15.6221,452
15.6242,362
15.6272,296
15.6292,254
15.6312,251
15.6333,335
15.6353,465
15.6373,534
15.6382,481
15.6402,389
15.6432,313
15.6447,265
15.6467,241
15.6487,296
15.6507,421
15.6527,522
15.6548,508
15.6556,418
15.6591,335
15.6612,278
15.6622,243
15.6668,267
15.6668,377
15.6708,499
15.6708,526
15.6728,445
15.6748,346
15.6768,270
15.6789,215
15.6809,195
15.6829,257
15.6849,357
15.687,390
15.689,298
15.6902,168
15.6922,62
15.6943,0
15.6963,0
15.6983,25
15.7003,144
15.7023,262
15.7054,284
15.7066,256
15.7086,251
15.7107,263
15.7127,274
15.7147,320
15.7167,433
15.7193,545
15.7213,561
15.7235,470
15.7243,367
15.7263,290
15.7283,242
15.7303,237
15.7323,322
15.7351,455
15.7373,528
15.7382,481
15.7402,391
15.7423,317
15.7443,270
15.7463,246
15.7483,300
15.751,425
15.753,526
15.755,513
15.757,424
15.7591,339
15.7611,281
15.7631,245
15.7651,268
15.7672,376
15.7682,497
15.7713,527
15.7733,450
15.7753,360
15.7774,293
15.7794,250
15.7814,247
15.7823,331
15.7843,462
15.7863,533
15.7889,483
15.7909,389
15.7929,312
15.795,262
15.797,237
15.7981,290
15.8002,412
15.8022,515
15.8047,503
15.8071,413
15.8091,328
15.8112,271
15.8129,235
15.8144,256
15.8164,364
15.8185,485
15.8212,515
15.8233,438
15.8253,348
15.8273,281
15.8291,239
15.8311,234
15.8331,316
15.8351,446
15.8371,516
15.838,466
15.84,373
15.842,295
15.8451,245
15.8471,221
15.8491,273
15.8511,397
15.8532,499
15.8552,486
15.8572,395
15.8592,308
15.861,251
15.8633,215
15.8653,237
15.8669,344
15.8689,468
15.8709,499
15.8729,422
15.8735,330
15.8771,264
15.8791,219
15.8811,211
15.8831,291
15.8851,419
15.8871,490
15.8891,441
15.8911,348
15.8929,272
15.8949,224
15.8969,199
15.899,251
15.901,374
15.903,475
15.905,462
15.9066,370
15.9086,284
15.9106,226
15.9126,189
15.9146,208
15.9167,312
15.9189,434
15.92,465
15.922,389
15.924,296
15.9272,230
15.9278,187
15.9298,181
15.9319,262
15.9339,391
15.9371,463
15.9382,415
15.94,321
15.942,248
15.944,200
15.946,177
15.948,231
15.9501,356
15.9521,463
15.9541,456
15.9571,369
15.9586,287
15.9596,233
15.9616,200
15.9636,224
15.9672,334
15.9686,462
15.9706,499
15.9734,428
15.9754,341
15.9774,278
15.9774,238
15.9794,236
15.9815,320
15.9855,453
15.987,528
15.9882,482
15.9904,391
15.9929,317
15.9941,269
15.997,245
15.9989,297
16.0001,421
16.0033,526
16.0046,517
16.0073,429
16.0087,346
16.0101,288
16.0127,252
16.0134,273
16.0175,380
16.0192,502
16.0214,536
16.0233,462
16.0253,372
16.0273,305
16.0288,262
16.0297,255
16.0318,336
16.0338,465
16.0358,538
16.0378,491
16.0398,399
16.0424,322
16.0444,273
16.0464,247
16.0495,297
16.0515,420
16.0515,524
16.0535,515
16.0555,427
16.0595,342
16.0615,285
16.0615,249
16.0653,268
16.0673,375
16.0693,497
16.0714,531
16.0734,457
16.0754,366
16.0774,299
16.0794,255
16.0812,248
16.0832,328
16.0852,458
16.0872,531
16.0891,484
16.0891,392
16.0917,315
16.0937,266
16.0972,241
16.0979,292
16.1,414
16.102,519
16.1053,511
16.1058,423
16.1078,338
16.1099,281
16.1129,245
16.1143,264
16.1163,371
16.1183,493
16.1214,529
16.122,455
16.124,365
16.126,298
16.129,256
16.1311,250
16.1331,330
16.1351,459
16.1371,534
16.1393,487
16.1409,394
16.1429,317
16.1447,268
16.1467,243
16.1488,293
16.1508,415
16.1528,520
16.1548,512
16.1569,423
16.1589,338
16.1607,280
16.1627,244
16.1647,262
16.1668,368
16.1689,491
16.1712,527
16.1732,454
16.1752,364
16.1768,296
16.1788,254
16.1808,247
16.1828,327
16.1848,456
16.1869,531
16.1889,486
16.1909,394
16.1927,317
16.1947,268
16.1967,242
16.1987,292
16.2008,414
16.2028,518
16.2048,511
16.2058,424
16.2078,339
16.2099,280
16.2119,244
16.2139,261
16.2159,366
16.2179,488
16.22,524
16.222,450
16.2237,360
16.2258,291
16.2278,247
16.2298,238
16.2318,315
16.2338,441
16.2359,514
16.2379,466
16.2407,372
16.2427,294
16.2448,245
16.2468,220
16.2488,271
16.2508,394
16.2531,501
16.2541,495
16.2568,407
16.2584,322
16.26,265
16.2632,229
16.2654,248
16.2654,353
16.2693,478
16.2701,515
16.2721,442
16.2741,352
16.2761,284
16.2761,240
16.2761,233
16.2761,312
16.2838,442
16.2864,521
16.2884,479
16.2904,389
16.2904,313
16.2904,265
16.2904,239
16.2904,288
16.3,411
16.3029,517
16.3053,510
16.3074,422
16.3094,336
16.3114,277
16.3114,241
16.3134,259
16.3157,364
16.3177,488
16.3197,526
16.3217,453
16.3237,363
16.3258,294
16.3278,251
16.3298,242
16.3336,320
16.3336,449
16.3356,526
16.3376,482
16.3397,390
16.3417,313
16.3437,264
16.3457,239
16.3475,285
16.3495,402
16.3536,502
16.355,487
16.3565,386
16.3585,282
16.3605,201
16.3626,135
16.3636,116
16.3656,182
16.3682,270
16.3702,280
16.3722,189
16.3742,88
16.3763,23
16.3793,0
16.3813,13
16.3833,125
16.3853,313
16.3853,468
16.3853,487
16.3853,434
16.3853,375
16.3951,322
16.3971,284
16.3992,316
16.4012,421
16.4032,515
16.4052,502
16.4072,411
16.4093,325
16.411,270
16.411,236
16.4137,257
16.4157,364
16.4177,490
16.4198,530
16.4233,459
16.4253,369
16.4274,300
16.4291,257
16.4303,248
16.4324,325
16.4344,454
16.4364,531
16.4384,488
16.4405,395
16.4425,318
16.4445,268
16.4466,240
16.4486,287
16.4506,408
16.4526,514
16.4526,510
16.4561,423
16.4581,338
16.4601,279
16.4622,242
16.4642,259
16.4662,363
16.4682,487
16.4709,525
16.4729,454
16.4739,363
16.476,294
16.478,249
16.48,239
16.483,315
16.4855,443
16.4871,520
16.489,477
16.4912,385
16.4933,307
16.4953,256
16.4965,228
16.4985,275
16.5005,395
16.5025,502
16.5045,498
16.5071,411
16.5079,324
16.5099,266
16.5119,228
16.514,245
16.514,347
16.514,471
16.514,510
16.5222,438
16.5222,346
16.5222,277
16.5222,234
16.5222,224
16.5222,300
16.5222,429
16.5222,507
16.5381,464
16.5381,370
16.5381,292
16.5381,240
16.5381,212
16.5381,257
16.5381,377
16.5381,483
16.554,480
16.554,393
16.554,306
16.554,247
16.554,209
16.554,224
16.554,324
16.5684,449
16.5699,488
16.5699,415
16.5699,322
16.5699,254
16.5699,210
16.5699,199
16.5699,274
16.5699,402
16.5868,480
16.5868,436
16.5868,342
16.5868,263
16.5868,212
16.5868,184
16.5868,229
16.5868,348
16.6019,456
16.6019,453
16.6019,364
16.6019,278
16.6019,218
16.6019,181
16.6019,196
16.6019,297
16.6179,423
16.62,465
16.622,395
16.622,305
16.622,240
16.622,199
16.622,192
16.622,270
16.634,401
16.6364,483
16.6364,445
16.6364,356
16.6364,281
16.6364,235
16.6364,211
16.6364,261
16.65,385
16.65,496
16.65,498
16.65,414
16.65,331
16.65,275
16.65,240
16.65,257
16.6658,362
16.6695,489
16.6715,532
16.6715,464
16.6715,374
16.6715,305
16.6715,263
16.6816,252
16.6816,329
16.6816,458
16.6861,538
16.6885,498
16.6905,405
16.6925,326
16.6925,276
16.6973,247
16.6973,292
16.6973,412
16.7029,521
16.705,521
16.705,434
16.705,349
16.705,288
16.7132,251
16.7132,265
16.7132,367
16.7196,491
16.7196,533
16.7216,463
16.7216,373
16.7216,303
16.729,259
16.729,247
16.729,322
16.729,450
16.729,530
16.729,490
16.729,399
16.729,321
16.745,271
16.7471,243
16.7481,288
16.7514,409
16.7531,518
16.7547,517
16.7564,431
16.7581,345
16.7609,286
16.7626,248
16.7646,262
16.7646,364
16.7688,489
16.7708,531
16.7708,461
16.7708,370
16.7708,301
16.7789,257
16.7789,246
16.7789,321
16.7854,450
16.7876,531
16.7876,492
16.7876,399
16.7876,321
16.7947,271
16.7947,243
16.7947,286
16.7947,406
16.7947,515
16.7947,515
16.7947,429
16.7947,343
16.8104,284
16.8124,247
16.8124,261
16.8124,363
16.8197,488
16.8197,532
16.8218,462
16.8218,371
16.8264,301
16.8264,258
16.8264,246
16.8326,321
16.8346,450
16.8366,531
16.8387,492
16.8407,401
16.8424,322
16.8424,271
16.8424,243
16.8424,286
16.8424,406
16.8424,515
16.8424,517
16.8424,431
16.8584,345
16.8584,285
16.8584,247
16.8584,260
16.8584,361
16.8691,486
16.8712,530
16.8732,461
16.8742,370
16.8762,300
16.8762,255
16.8762,244
16.8762,318
16.8762,446
16.8762,528
16.8762,488
16.891,396
16.891,317
16.891,265
16.891,237
16.891,280
16.891,399
16.9028,509
16.9058,510
16.9058,421
16.9058,331
16.9058,268
16.9058,227
16.9058,237
16.9058,336
16.9187,462
16.9215,508
16.9235,440
16.9256,348
16.9276,279
16.9276,234
16.9276,222
16.9276,295
16.9347,424
16.9367,509
16.9367,473
16.9367,382
16.9421,305
16.9442,256
16.9462,228
16.9482,272
16.9503,392
16.9523,503
16.9544,506
16.9564,422
16.9589,337
16.961,279
16.963,243
16.965,257
16.967,359
16.9696,486
16.9696,532
16.9721,464
16.9721,373
16.9721,303
16.9721,259
16.9721,245
16.9721,317
16.9837,445
16.9837,528
16.9897,490
16.9897,397
16.9931,318
16.9931,267
16.9931,238
16.9931,280
16.9994,399
16.9994,509
16.9994,513
16.9994,427
16.9994,340
16.9994,280
16.9994,241
17.017,253
17.018,355
17.0197,481
17.0214,527
17.023,458
17.0247,362
17.0263,284
17.0279,230
17.0305,203
17.0325,256
17.0346,358
17.0366,409
17.0386,331
17.0386,201
17.0386,91
17.0447,13
17.0465,0
17.0485,16
17.0485,125
17.0542,247
17.0542,276
17.0562,235
17.0562,217
17.0562,230
17.0622,249
17.0644,294
17.0664,408
17.0684,531
17.07,566
17.0731,483
17.0731,377
17.0757,296
17.0778,244
17.0798,229
17.0818,301
17.0853,432
17.0873,520
17.0873,487
17.0873,398
17.0934,320
17.0934,270
17.0958,242
17.0979,284
17.0999,403
17.1019,514
17.1019,518
17.1019,432
17.1093,346
17.1093,284
17.1093,247
17.1093,258
17.1093,357
17.1179,482
17.12,529
17.122,462
17.125,370
17.125,299
17.125,255
17.125,241
17.125,312
17.125,441
17.1359,525
17.1359,489
17.141,396
17.143,315
17.143,263
17.1477,234
17.1497,274
17.1497,393
17.1497,504
17.1543,508
17.158,423
17.158,335
17.1611,274
17.1611,235
17.1611,246
17.1611,345
17.1611,470
17.1704,518
17.1724,450
17.1724,358
17.1724,287
17.1724,242
17.1803,228
17.1803,297
17.1803,425
17.1864,510
17.1881,474
17.1901,381
17.1901,301
17.1901,248
17.1901,218
17.1901,257
17.201,375
17.204,487
17.204,492
17.204,407
17.204,319
17.204,259
17.2122,220
17.2122,228
17.2122,325
17.219,451
17.2201,498
17.2201,430
17.2201,336
17.2201,266
17.2201,220
17.2201,205
17.2325,275
17.2325,401
17.2364,486
17.2384,450
17.2384,356
17.2384,276
17.2384,223
17.2384,193
17.2484,232
17.2484,348
17.2518,460
17.2518,466
17.2518,379
17.2518,290
17.2518,229
17.2518,189
17.2518,197
17.2676,293
17.2676,420
17.2705,468
17.2705,401
17.2754,307
17.2773,238
17.2791,192
17.2815,178
17.2839,247
17.2853,375
17.2876,462
17.2876,428
17.2876,335
17.2876,256
17.2876,205
17.2876,176
17.299,217
17.3004,335
17.3025,452
17.3045,462
17.3074,380
17.3074,295
17.3074,238
17.3074,203
17.3155,216
17.3155,316
17.3186,448
17.3186,501
17.3186,439
17.3186,350
17.3186,283
17.3186,241
17.3312,229
17.3312,302
17.3346,433
17.3346,522
17.3396,491
17.3396,401
17.3396,323
17.3449,272
17.3469,243
17.3469,284
17.3469,402
17.3469,516
17.3554,524
17.3574,441
17.3574,355
17.3574,293
17.3628,254
17.3628,263
17.3628,360
17.3628,486
17.3706,537
17.3706,473
17.3706,381
17.3706,310
17.378,265
17.378,249
17.378,318
17.378,446
17.3877,533
17.3877,500
17.3877,408
17.3877,329
17.3939,277
17.3939,247
17.3939,285
17.4004,402
17.4004,515
17.4045,522
17.4065,437
17.4065,351
17.4098,288
17.4098,249
17.4098,258
17.4098,356
17.4197,482
17.4197,533
17.4217,468
17.4254,376
17.4254,304
17.4254,260
17.4254,244
17.4254,313
17.4254,440
17.4363,528
17.4384,495
17.4415,404
17.4427,323
17.4447,271
17.4467,240
17.4467,277
17.4467,394
17.4529,508
17.4549,517
17.4573,433
17.4573,347
17.4573,285
17.4573,247
17.4573,254
17.4573,351
17.4573,477
17.471,528
17.473,464
17.475,372
17.4771,301
17.4791,255
17.4791,240
17.4791,309
17.4791,437
17.486,525
17.4887,493
17.4887,402
17.4919,322
17.4919,269
17.4919,239
17.4919,277
17.4919,395
17.4919,509
17.5047,518
17.5047,433
17.5078,346
17.5098,284
17.5098,245
17.5098,252
17.5098,348
17.5197,475
17.5207,527
17.5207,464
17.5207,373
17.5207,302
17.5207,257
17.5207,241
17.5207,309
17.5207,437
17.5365,525
17.5365,494
17.5365,403
17.5365,322
17.5365,270
17.5458,239
17.5478,276
17.5498,392
17.5519,504
17.5539,514
17.5559,430
17.5559,343
17.5559,280
17.5559,241
17.5559,248
17.5668,343
17.5678,470
17.5713,523
17.5734,460
17.5754,368
17.5774,296
17.5774,250
17.5774,232
17.5774,297
17.5851,421
17.5872,506
17.5892,473
17.5892,379
17.5892,298
17.5892,245
17.5892,213
17.5892,249
17.5999,365
17.6036,478
17.6036,489
17.6036,407
17.6036,320
17.6108,261
17.6129,225
17.6149,233
17.6159,331
17.6159,460
17.6197,514
17.6197,452
17.6244,361
17.6264,290
17.6284,245
17.6284,229
17.6327,297
17.6348,426
17.6368,516
17.6368,488
17.6368,398
17.6429,320
17.6449,269
17.6469,239
17.648,275
17.65,391
17.652,505
17.654,517
17.6561,434
17.6561,347
17.6561,285
17.6561,246
17.6638,253
17.6638,347
17.6638,474
17.6716,527
17.6716,464
17.6716,372
17.6716,300
17.6716,255
17.6797,239
17.6797,305
17.6797,432
17.6797,522
17.6797,492
17.6797,401
17.6918,322
17.6918,269
17.6957,236
17.6957,266
17.6957,373
17.6957,476
17.7056,474
17.7056,373
17.7076,262
17.7076,171
17.7128,97
17.7153,66
17.7169,126
17.7185,226
17.7214,263
17.723,194
17.725,108
17.7275,54
17.7275,31
17.7275,54
17.7275,185
17.7336,387
17.7362,538
17.7386,544
17.7386,467
17.7434,384
17.7434,315
17.7434,266
17.7434,284
17.7434,387
17.7529,493
17.7549,501
17.7549,419
17.7593,333
17.7593,276
17.7628,241
17.7649,250
17.7669,346
17.7689,474
17.7709,530
17.7719,469
17.7755,377
17.7775,306
17.7775,260
17.7775,243
17.7775,308
17.7775,435
17.7775,525
17.7775,497
17.7775,405
17.7915,324
17.7915,271
17.7915,238
17.7915,272
17.7915,387
17.7915,501
17.7915,514
17.8073,432
17.8073,344
17.8104,282
17.8125,243
17.8145,247
17.8161,340
17.8197,467
17.8197,522
17.8232,460
17.8246,367
17.826,295
17.826,249
17.826,231
17.826,296
17.8358,423
17.8358,514
17.8358,486
17.8358,395
17.8358,314
17.8439,261
17.8439,229
17.8439,263
17.8439,377
17.8519,491
17.854,504
17.8557,422
17.8557,333
17.8557,271
17.8557,231
17.8557,235
17.8557,326
17.8678,453
17.8678,509
17.872,447
17.8749,355
17.8758,282
17.8779,236
17.88,218
17.882,281
17.8858,407
17.8858,496
17.8878,467
17.8878,376
17.8878,294
17.8943,241
17.8943,208
17.8943,241
17.9016,354
17.9016,469
17.9048,482
17.9048,399
17.9048,309
17.9048,248
17.9119,207
17.914,211
17.9157,301
17.9157,427
17.9157,483
17.9157,421
17.9241,326
17.9241,255
17.9241,208
17.9314,188
17.9314,251
17.9314,376
17.936,466
17.938,438
17.9401,344
17.9401,263
17.9401,209
17.947,176
17.9483,209
17.9503,319
17.9523,436
17.9546,450
17.9546,367
17.9546,278
17.9546,216
17.9627,176
17.9627,180
17.9667,271
17.9667,400
17.9667,458
17.9723,400
17.9743,308
17.9769,241
17.9786,199
17.9801,184
17.9801,251
17.9854,380
17.9874,476
17.9889,454
17.9889,367
17.9889,290
17.9944,241
17.9975,212
17.9975,248
18.0002,365
18.0028,483
18.0049,503
18.0069,426
18.0089,342
18.0104,283
18.0124,246
18.0145,253
18.0145,346
18.0188,474
18.0208,532
18.0229,473
18.0249,383
18.0264,312
18.029,267
18.0306,249
18.0322,312
18.0354,437
18.0376,529
18.0382,503
18.0402,414
18.0422,334
18.0422,281
18.0422,249
18.0422,281
18.0422,394
18.0537,509
18.0537,525
18.0569,445
18.0579,358
18.0579,296
18.0579,256
18.0579,259
18.0579,350
18.0579,475
18.0579,532
18.0736,472
18.0736,380
18.0736,309
18.0736,265
18.0736,246
18.0736,309
18.0736,434
18.0736,525
18.0896,500
18.0896,410
18.0896,330
18.0896,277
18.0969,245
18.0969,276
18.0969,390
18.1027,504
18.1047,521
18.1047,441
18.1082,354
18.1082,292
18.113,253
18.1151,256
18.1171,346
18.1171,472
18.1205,530
18.1205,472
18.1249,382
18.1249,310
18.1282,264
18.1303,245
18.1303,305
18.1303,430
18.1365,522
18.1365,498
18.14,409
18.142,329
18.1441,277
18.1461,245
18.1481,276
18.1502,389
18.1537,504
18.1537,522
18.1569,442
18.1569,356
18.1603,293
18.1603,253
18.1603,255
18.1603,344
18.1684,470
18.1704,529
18.1729,471
18.1729,381
18.1729,310
18.1729,266
18.1729,247
18.1729,308
18.1844,432
18.1844,524
18.1889,500
18.1889,411
18.1923,331
18.1955,278
18.1955,246
18.1955,276
18.2015,388
18.202,503
18.205,521
18.205,442
18.205,356
18.205,293
18.205,253
18.205,255
18.2164,344
18.2193,470
18.2193,529
18.2193,472
18.2193,381
18.2193,309
18.2193,264
18.2193,245
18.2322,306
18.2322,430
18.2358,523
18.2379,499
18.2399,409
18.2419,328
18.2439,275
18.2459,242
18.2479,271
18.2479,383
18.2479,498
18.254,516
18.2561,437
18.2592,350
18.2612,286
18.2629,244
18.2655,243
18.2671,327
18.2687,449
18.2704,506
18.273,447
18.2736,356
18.2736,285
18.2736,239
18.2796,219
18.2796,278
18.2796,402
18.2874,496
18.2874,475
18.2874,387
18.2874,309
18.2874,258
18.2957,228
18.2957,259
18.2957,370
18.3029,487
18.3049,507
18.3049,428
18.3049,342
18.3049,281
18.3116,242
18.3116,243
18.3116,332
18.3197,460
18.3197,522
18.3197,467
18.3197,379
18.3197,309
18.3275,264
18.3275,245
18.3275,305
18.3275,428
18.3362,521
18.3362,499
18.3362,410
18.3434,330
18.3454,277
18.3474,245
18.3474,273
18.35,382
18.35,497
18.35,516
18.35,436
18.3591,349
18.3607,287
18.3627,248
18.3627,249
18.3627,336
18.3684,462
18.3684,524
18.3733,469
18.3753,380
18.3769,307
18.3769,258
18.3769,231
18.3769,280
18.3863,390
18.3863,466
18.388,422
18.388,303
18.3926,192
18.3926,102
18.3926,32
18.3983,26
18.3983,108
18.3983,209
18.3983,230
18.4074,166
18.4084,103
18.4084,76
18.4084,92
18.4139,167
18.4139,323
18.4139,498
18.4209,583
18.4209,533
18.4246,435
18.4246,349
18.4246,285
18.4301,251
18.4301,297
18.4301,414
18.4363,505
18.4363,485
18.4403,400
18.4403,324
18.4403,276
18.4403,245
18.4403,274
18.4506,384
18.4526,500
18.4526,520
18.4563,442
18.4563,357
18.4563,294
18.4563,255
18.4563,255
18.4563,340
18.4697,465
18.4697,526
18.4721,472
18.4736,382
18.4773,310
18.4773,263
18.4773,241
18.4773,297
18.4773,419
18.4773,514
18.4878,496
18.4878,409
18.4878,330
18.4878,278
18.4878,245
18.4878,271
18.4878,378
18.5037,492
18.5037,511
18.5057,432
18.5057,345
18.5057,284
18.5057,245
18.5057,245
18.5057,330
18.5195,455
18.5215,517
18.5215,462
18.5215,372
18.5215,300
18.5215,254
18.5215,232
18.5215,288
18.5353,410
18.5353,503
18.5353,483
18.5353,394
18.5353,313
18.5353,261
18.5353,227
18.5353,253
18.5512,361
18.5512,477
18.5512,500
18.5512,423
18.5512,336
18.5512,275
18.5512,234
18.5512,231
18.5672,314
18.5672,437
18.5698,498
18.5698,442
18.5738,351
18.5738,281
18.5738,236
18.5738,215
18.583,270
18.583,391
18.5863,484
18.5883,464
18.5883,376
18.5883,296
18.5883,244
18.5883,211
18.5987,236
18.5987,341
18.5987,457
18.5987,478
18.5987,401
18.5987,312
18.5987,250
18.5987,209
18.6148,207
18.6148,289
18.6148,411
18.6148,471
18.6148,414
18.6148,322
18.6148,252
18.6148,207
18.6301,186
18.6301,240
18.6301,359
18.6301,453
18.6301,432
18.6301,343
18.6301,264
18.6301,212
18.6459,179
18.6496,203
18.6496,309
18.6521,427
18.6541,451
18.6575,377
18.6575,293
18.6606,237
18.6616,201
18.6616,203
18.6616,291
18.6616,419
18.6696,485
18.6723,435
18.6738,348
18.6774,281
18.6774,239
18.6774,221
18.6774,279
18.6854,404
18.6854,502
18.6854,486
18.6854,401
18.6934,324
18.6934,275
18.6934,244
18.6934,271
18.6934,380
18.7029,496
18.7029,522
18.7029,448
18.7091,365
18.7091,304
18.7091,266
18.7091,264
18.7091,348
18.7091,471
18.7212,534
18.7212,481
18.7251,393
18.7251,322
18.7251,276
18.7251,255
18.7251,309
18.7251,429
18.7358,523
18.7358,504
18.7411,418
18.7411,339
18.7411,288
18.7457,256
18.7457,281
18.7457,387
18.7529,502
18.7529,524
18.757,449
18.757,364
18.757,301
18.757,262
18.757,259
18.757,340
18.7694,462
18.7694,525
18.773,472
18.7741,383
18.7741,312
18.7741,268
18.7741,247
18.7741,301
18.7741,421
18.7863,516
18.7888,499
18.7888,410
18.7888,330
18.7888,278
18.7888,246
18.7888,270
18.7888,376
18.7888,491
18.8047,516
18.8047,441
18.8047,358
18.8047,296
18.8047,256
18.8047,253
18.8047,336
18.8047,460
18.8207,524
18.8207,472
18.8207,383
18.8207,313
18.8207,269
18.8207,248
18.8207,301
18.8207,421
18.8368,516
18.8368,500
18.8368,414
18.8368,337
18.8368,285
18.8368,252
18.8368,276
18.8368,382
18.8525,498
18.8525,523
18.8561,448
18.8561,362
18.8561,300
18.8561,261
18.8561,258
18.8561,339
18.8682,463
18.8682,528
18.8731,477
18.8742,388
18.8742,318
18.8742,273
18.8742,252
18.8742,305
18.885,425
18.8863,520
18.8863,504
18.8863,416
18.8863,337
18.8863,285
18.8863,253
18.8863,277
18.9001,383
18.9029,499
18.9041,525
18.9041,450
18.9084,364
18.9084,300
18.9084,260
18.9084,257
18.9165,338
18.9184,462
18.9204,528
18.9204,477
18.9204,388
18.9204,317
18.9204,270
18.9204,248
18.9324,299
18.9324,418
18.9367,512
18.9367,496
18.9367,409
18.9367,329
18.9367,275
18.9367,238
18.9482,258
18.9482,360
18.9528,473
18.9528,498
18.9528,423
18.9528,337
18.9528,276
18.9528,236
18.9641,231
18.9641,311
18.969,436
18.9711,502
18.9711,454
18.9744,367
18.9744,298
18.9744,255
18.98,234
18.9834,287
18.9848,407
18.9875,504
18.9891,489
18.9906,403
18.9922,325
18.9938,274
18.9954,243
18.9954,269
18.9954,377
19.0017,495
19.0038,523
19.0038,448
19.0081,362
19.0114,299
19.0114,259
19.0143,255
19.0164,335
19.0196,460
19.0216,527
19.0216,478
19.0216,389
19.0272,318
19.0272,273
19.03,250
19.03,301
19.0356,418
19.0375,514
19.0395,499
19.0395,412
19.0434,332
19.0434,279
19.0434,247
19.0434,270
19.0434,375
19.0434,493
19.0549,521
19.0549,445
19.0594,356
19.0594,286
19.0631,237
19.0631,221
19.0631,284
19.0688,389
19.0709,431
19.0709,350
19.0745,225
19.0755,119
19.0755,40
19.0755,0
19.0755,29
19.0755,139
19.0866,246
19.0866,254
19.0915,198
19.0915,164
19.0949,174
19.0949,208
19.0949,283
19.0949,420
19.1029,548
19.1049,574
19.1049,490
19.1076,389
19.1076,312
19.1076,261
19.1076,248
19.1076,324
19.1076,447
19.1076,515
19.1235,468
19.1235,382
19.1267,313
19.1287,269
19.1287,248
19.1334,299
19.1356,420
19.1356,518
19.1393,504
19.1393,417
19.1393,337
19.1393,285
19.1393,252
19.1478,275
19.1478,380
19.1527,497
19.1555,524
19.1555,449
19.1555,361
19.1555,297
19.1555,256
19.1555,251
19.1555,331
19.1555,456
19.1706,523
19.1726,474
19.1747,384
19.1747,311
19.1747,265
19.1747,241
19.1747,292
19.1747,412
19.1862,511
19.1883,499
19.1883,412
19.1883,331
19.1883,277
19.1883,243
19.1883,263
19.1883,366
19.202,483
19.2041,511
19.2041,436
19.2041,349
19.2106,286
19.2134,246
19.2134,240
