timestamp,ecg_value
0.0,372
0.002,346
0.002,322
0.002,304
0.002,299
0.0042,288
0.0042,269
0.0042,246
0.0042,239
0.0042,232
0.0042,225
0.0062,218
0.0062,224
0.0062,226
0.0062,219
0.0062,203
0.0062,198
0.0062,198
0.0082,195
0.0082,191
0.0082,196
0.0082,204
0.0102,203
0.0102,191
0.0102,182
0.0125,182
0.0125,181
0.0125,177
0.0125,175
0.0145,183
0.0145,185
0.0145,176
0.0145,163
0.0145,164
0.0145,164
0.0145,162
0.0145,160
0.0173,170
0.0173,175
0.0173,172
0.0173,159
0.0183,158
0.0183,161
0.0183,161
0.0183,160
0.0183,167
0.0183,177
0.0183,178
0.0183,169
0.0203,163
0.0203,167
0.0212,168
0.0212,168
0.0232,171
0.0232,183
0.0252,187
0.0252,182
0.0273,172
0.0283,175
0.0283,177
0.0283,176
0.0283,175
0.0283,186
0.0283,193
0.0283,191
0.0283,180
0.0283,180
0.0283,183
0.0283,183
0.0283,182
0.0283,189
0.0283,198
0.0283,199
0.0283,189
0.0283,183
0.0337,186
0.0337,187
0.0337,186
0.0337,188
0.0337,199
0.0363,202
0.0367,196
0.0367,185
0.0367,188
0.0367,189
0.0367,189
0.0388,188
0.0388,198
0.0388,203
0.0388,201
0.0388,189
0.0388,189
0.0408,191
0.0408,191
0.0408,189
0.0408,196
0.0408,204
0.0408,204
0.0408,195
0.0408,189
0.0428,192
0.0428,192
0.0428,191
0.0428,193
0.0428,203
0.0428,206
0.0428,201
0.0428,192
0.0428,195
0.0428,195
0.0448,192
0.0448,190
0.0448,200
0.0448,206
0.0459,205
0.0459,196
0.0459,195
0.0459,197
0.0459,194
0.0459,191
0.0459,197
0.0459,205
0.0459,207
0.0459,200
0.0459,195
0.0459,197
0.0459,196
0.0459,193
0.0459,193
0.0459,203
0.0459,207
0.0459,204
0.0459,195
0.0459,198
0.0459,197
0.0459,194
0.0459,192
0.0459,201
0.0459,207
0.0459,206
0.0459,197
0.0459,197
0.0459,198
0.0459,196
0.0459,193
0.0459,198
0.0459,206
0.0459,208
0.0459,200
0.0459,195
0.0459,198
0.0459,197
0.0459,195
0.0459,196
0.0459,205
0.0459,209
0.0459,204
0.0459,194
0.0459,197
0.0459,198
0.0459,196
0.0459,194
0.0459,203
0.0459,209
0.0459,206
0.0459,195
0.0459,195
0.0459,197
0.0459,197
0.0459,195
0.0459,201
0.0459,208
0.0459,208
0.0459,199
0.0459,194
0.0459,197
0.0459,197
0.0459,195
0.0459,197
0.0459,207
0.0459,209
0.0459,203
0.0459,193
0.0459,197
0.0459,197
0.0459,196
0.0459,195
0.0459,204
0.0459,209
0.0459,206
0.0459,195
0.0459,195
0.0459,197
0.0459,197
0.0459,194
0.0607,201
0.0607,208
0.0607,208
0.0607,199
0.0607,194
0.0607,197
0.0607,197
0.0626,195
0.0626,197
0.0626,206
0.0626,209
0.0626,203
0.0626,193
0.0626,196
0.0626,197
0.0626,196
0.0626,195
0.0647,204
0.0647,209
0.0647,206
0.0647,195
0.0647,196
0.0647,197
0.0647,197
0.0647,195
0.0647,201
0.0647,208
0.0647,208
0.0647,199
0.0647,194
0.0647,197
0.0647,197
0.0647,195
0.0647,197
0.0647,207
0.0647,209
0.0647,203
0.0647,193
0.0647,197
0.0647,198
0.0647,196
0.0647,195
0.0647,204
0.0647,209
0.0647,206
0.0647,195
0.0647,196
0.0647,198
0.0647,197
0.0647,195
0.0647,202
0.0647,209
0.0647,208
0.0647,199
0.0647,194
0.0647,197
0.0647,197
0.0647,196
0.0647,198
0.0647,207
0.0647,209
0.0647,203
0.0647,193
0.0647,197
0.0647,198
0.0647,196
0.0647,195
0.0647,204
0.0647,209
0.0758,206
0.0758,195
0.0758,196
0.0758,198
0.0766,197
0.0773,195
0.0773,202
0.078,208
0.078,208
0.0788,199
0.0788,194
0.0794,197
0.0794,197
0.0801,195
0.0801,198
0.0807,207
0.0807,209
0.0807,202
0.0814,193
0.082,197
0.082,197
0.082,196
0.0826,195
0.0826,204
0.0826,209
0.0834,206
0.0834,195
0.0834,195
0.0842,197
0.0842,197
0.0842,194
0.085,201
0.085,208
0.085,207
0.0857,198
0.0857,194
0.0857,197
0.0865,197
0.0865,195
0.0865,198
0.0873,207
0.0873,209
0.0873,202
0.0879,193
0.0879,196
0.0879,197
0.0879,196
0.0879,195
0.0879,204
0.0879,209
0.0879,205
0.0879,194
0.0879,196
0.0879,197
0.0879,196
0.0879,194
0.0879,202
0.0879,208
0.0879,208
0.0879,198
0.0879,194
0.0879,197
0.0879,197
0.0879,195
0.0927,198
0.0927,207
0.0927,209
0.0927,202
0.0927,193
0.0927,197
0.0927,197
0.0927,196
0.0927,195
0.095,204
0.095,209
0.095,205
0.095,194
0.095,196
0.095,197
0.0971,197
0.0971,194
0.0971,201
0.0971,208
0.0971,208
0.0971,198
0.0971,194
0.0971,197
0.0992,197
0.0992,195
0.0992,198
0.0992,207
0.0992,209
0.0992,201
0.0992,193
0.0992,197
0.0992,197
0.0992,196
0.0992,195
0.0992,204
0.0992,209
0.0992,205
0.0992,195
0.0992,196
0.0992,197
0.0992,196
0.0992,194
0.0992,201
0.0992,208
0.0992,207
0.0992,198
0.0992,194
0.0992,197
0.0992,197
0.0992,195
0.0992,197
0.0992,205
0.0992,209
0.0992,202
0.0992,193
0.0992,197
0.0992,197
0.0992,195
0.0992,194
0.0992,203
0.0992,208
0.0992,206
0.0992,195
0.0992,196
0.0992,198
0.1089,196
0.1089,193
0.1089,200
0.1089,207
0.1089,208
0.1089,198
0.1089,195
0.1089,197
0.1089,197
0.1089,194
0.1089,196
0.1089,204
0.1116,208
0.1116,203
0.1116,194
0.1116,197
0.1136,197
0.1136,195
0.1136,193
0.1136,202
0.1136,207
0.1136,205
0.1136,196
0.1136,197
0.1136,198
0.1136,195
0.1164,192
0.1164,199
0.1164,206
0.1164,207
0.1164,199
0.1164,196
0.1164,198
0.1164,196
0.1164,193
0.1164,195
0.1164,204
0.1164,208
0.1164,203
0.1164,195
0.1164,198
0.1164,197
0.1164,194
0.1164,193
0.1164,202
0.1164,207
0.1164,205
0.1164,196
0.1164,197
0.1164,198
0.1164,195
0.1164,191
0.1164,199
0.1164,206
0.1164,207
0.1164,199
0.1164,197
0.1164,198
0.1164,196
0.1247,193
0.1247,195
0.1247,204
0.1247,207
0.1247,202
0.1247,195
0.1247,198
0.1247,197
0.1247,194
0.1247,193
0.1247,201
0.1247,207
0.1247,205
0.1247,196
0.1247,198
0.1283,198
0.1283,195
0.1283,191
0.1283,199
0.1283,206
0.1283,207
0.1283,199
0.1283,196
0.1283,198
0.1283,196
0.1283,193
0.1283,195
0.1283,204
0.1283,207
0.1283,202
0.1283,195
0.1283,198
0.1283,197
0.1283,194
0.133,193
0.133,202
0.133,207
0.133,205
0.133,196
0.133,197
0.133,198
0.133,195
0.133,191
0.133,199
0.133,206
0.1357,207
0.1357,199
0.1357,197
0.1357,198
0.1357,196
0.1357,193
0.1357,196
0.1357,204
0.1357,207
0.1357,202
0.1357,195
0.1357,198
0.1357,197
0.1357,194
0.1357,192
0.1357,202
0.1357,207
0.1357,204
0.1357,196
0.1357,198
0.1357,197
0.1357,195
0.1357,191
0.1357,199
0.1357,206
0.1357,207
0.1357,199
0.1357,197
0.1357,198
0.1357,196
0.1357,193
0.1357,196
0.1357,204
0.1357,207
0.1451,202
0.1451,195
0.1451,198
0.1461,197
0.1461,194
0.1461,193
0.1461,202
0.1461,207
0.1461,205
0.1461,196
0.1461,198
0.1461,197
0.1461,195
0.1461,191
0.1461,199
0.1461,206
0.1461,207
0.1461,198
0.1461,197
0.1461,198
0.1461,196
0.1461,193
0.1461,196
0.1461,204
0.1461,207
0.1461,202
0.1461,195
0.1461,198
0.1461,197
0.1461,193
0.1461,192
0.1461,202
0.1461,207
0.1532,204
0.1532,196
0.1532,198
0.1532,197
0.1532,195
0.1532,191
0.1532,199
0.1532,206
0.1532,206
0.1532,198
0.1532,197
0.1532,198
0.1532,196
0.1532,192
0.1532,196
0.1532,204
0.1532,207
0.1532,201
0.1532,195
0.1532,197
0.1532,196
0.1532,193
0.1532,193
0.1532,203
0.1532,206
0.1532,203
0.1532,195
0.1532,197
0.1532,196
0.1532,194
0.1532,192
0.1532,200
0.1532,207
0.1532,207
0.1532,199
0.1532,197
0.1532,198
0.1532,196
0.1532,192
0.1532,196
0.1532,204
0.1532,207
0.1532,201
0.162,196
0.162,198
0.162,197
0.162,193
0.162,193
0.162,202
0.162,207
0.162,204
0.162,196
0.162,198
0.162,197
0.162,194
0.162,191
0.162,200
0.162,206
0.162,206
0.162,198
0.162,197
0.162,198
0.162,196
0.162,192
0.162,196
0.162,204
0.162,207
0.162,201
0.162,195
0.162,198
0.162,196
0.162,193
0.162,193
0.162,202
0.162,207
0.162,204
0.162,196
0.162,197
0.162,197
0.162,194
0.162,191
0.162,200
0.162,206
0.162,206
0.162,198
0.162,197
0.162,198
0.1702,196
0.1702,192
0.1702,196
0.1702,204
0.1702,207
0.1702,201
0.1702,195
0.1702,198
0.1702,196
0.1702,193
0.1702,193
0.1702,202
0.1702,207
0.1702,204
0.1702,196
0.1702,198
0.1702,197
0.1702,195
0.1702,191
0.1702,200
0.1702,206
0.1702,206
0.1702,197
0.1702,197
0.1702,198
0.1702,195
0.1702,192
0.1702,197
0.1702,204
0.1702,207
0.1702,201
0.1702,196
0.1702,198
0.1702,196
0.1702,193
0.1702,193
0.1702,202
0.1702,207
0.1702,204
0.1702,195
0.1702,197
0.1702,197
0.1702,194
0.1786,191
0.1786,200
0.1786,206
0.1786,206
0.1786,197
0.1786,197
0.1786,198
0.1786,195
0.1786,192
0.1786,197
0.1786,204
0.1786,207
0.1786,201
0.1786,195
0.1786,198
0.1786,196
0.1786,193
0.1786,193
0.1786,203
0.1786,207
0.1786,204
0.1786,195
0.1786,198
0.1786,197
0.1786,194
0.1786,191
0.1786,200
0.1786,206
0.1786,206
0.1786,198
0.1786,197
0.1786,198
0.1786,196
0.1786,192
0.1786,197
0.1786,205
0.1786,207
0.1786,201
0.1786,196
0.1786,198
0.1863,197
0.1863,193
0.1863,193
0.1863,202
0.1863,206
0.1863,204
0.1863,195
0.1879,198
0.1879,197
0.1879,194
0.1879,191
0.1879,200
0.1879,206
0.1879,206
0.1879,197
0.1879,197
0.1879,198
0.1879,195
0.1879,192
0.1879,197
0.1879,204
0.1879,207
0.1879,201
0.1879,196
0.1879,198
0.1879,196
0.1879,193
0.1879,193
0.1879,202
0.1879,207
0.1879,203
0.1879,195
0.1879,198
0.1879,197
0.1879,194
0.1879,191
0.1879,200
0.1879,206
0.1879,205
0.1879,197
0.1879,197
0.1879,198
0.1879,195
0.1879,192
0.1879,197
0.1879,204
0.1879,207
0.1879,201
0.1879,196
0.1879,198
0.1879,196
0.1879,193
0.1879,193
0.1879,202
0.1879,207
0.1879,203
0.1879,195
0.1879,198
0.1879,197
0.1879,194
0.1879,191
0.1879,199
0.1879,206
0.1879,205
0.1879,197
0.1879,197
0.1879,198
0.1879,195
0.1879,192
0.1879,197
0.1879,204
0.1879,207
0.1879,200
0.1879,196
0.1879,198
0.1879,196
0.1879,193
0.1879,193
0.1879,202
0.1879,207
0.1879,203
0.1879,195
0.1879,198
0.1879,197
0.2022,194
0.2022,191
0.2022,200
0.2022,206
0.2022,205
0.2022,197
0.2022,197
0.2022,198
0.2022,195
0.2022,192
0.2022,197
0.2022,205
0.2022,207
0.2022,200
0.2022,196
0.2022,198
0.2022,197
0.2022,193
0.2022,193
0.2022,202
0.2022,206
0.2022,203
0.2022,195
0.2022,198
0.2022,197
0.2022,194
0.2022,191
0.2022,200
0.2022,206
0.2022,205
0.2022,197
0.2022,197
0.2022,198
0.2022,195
0.2022,191
0.2022,197
0.2022,204
0.2022,207
0.2022,200
0.2022,196
0.2022,198
0.2022,196
0.2022,193
0.2022,194
0.2022,202
0.2022,206
0.2022,203
0.2022,195
0.2022,198
0.2022,197
0.2022,194
0.2022,191
0.2022,200
0.2022,206
0.2022,205
0.2022,197
0.2022,197
0.2022,198
0.2022,195
0.2022,191
0.2022,197
0.2022,204
0.2022,206
0.2022,200
0.2022,196
0.2022,198
0.2022,196
0.2022,192
0.2022,193
0.2022,202
0.2022,206
0.2022,203
0.2022,195
0.2022,198
0.2022,197
0.2022,194
0.2022,191
0.2022,200
0.2022,205
0.2022,205
0.2022,196
0.2022,197
0.2022,198
0.2022,195
0.2022,191
0.2022,197
0.2022,204
0.2022,206
0.2022,200
0.2022,196
0.2022,198
0.2022,196
0.2022,193
0.2022,194
0.2022,203
0.2022,207
0.2022,203
0.2022,195
0.2022,198
0.2022,197
0.2022,194
0.2022,191
0.2022,200
0.2022,206
0.2022,205
0.2022,196
0.2022,197
0.2182,197
0.2182,195
0.2182,191
0.2182,197
0.2182,205
0.2182,206
0.2182,200
0.2182,196
0.2182,198
0.2182,196
0.2182,193
0.2182,194
0.2202,203
0.2202,207
0.2202,203
0.2202,195
0.2202,198
0.2202,197
0.2202,194
0.2202,191
0.2202,200
0.2202,205
0.2202,205
0.2202,196
0.2202,197
0.2202,198
0.2202,195
0.2222,191
0.2222,197
0.2222,204
0.2222,206
0.2222,199
0.2222,196
0.2222,197
0.2222,195
0.2222,192
0.2222,193
0.2222,202
0.2222,206
0.2222,202
0.2242,194
0.2242,197
0.2242,196
0.2242,193
0.2242,191
0.2242,201
0.2242,206
0.2242,206
0.2242,197
0.2242,198
0.2262,198
0.2262,195
0.2262,192
0.2262,198
0.2262,205
0.2262,206
0.2262,199
0.2262,196
0.2262,198
0.2262,196
0.2282,193
0.2282,194
0.2282,203
0.2282,206
0.2282,202
0.2282,195
0.2282,198
0.2282,197
0.2282,194
0.2282,192
0.2302,200
0.2302,206
0.2302,205
0.2302,196
0.2302,197
0.2302,197
0.2302,195
0.2302,191
0.2302,198
0.2302,205
0.2302,206
0.2322,199
0.2322,196
0.2322,198
0.2322,196
0.2322,192
0.2322,194
0.2322,203
0.2322,206
0.2322,202
0.234,195
0.234,198
0.234,197
0.234,194
0.234,192
0.234,200
0.234,206
0.234,204
0.234,196
0.234,197
0.234,197
0.236,195
0.236,191
0.236,198
0.236,205
0.236,206
0.236,199
0.236,196
0.236,198
0.236,196
0.236,192
0.236,194
0.238,203
0.238,206
0.238,202
0.238,195
0.238,198
0.238,197
0.238,193
0.238,192
0.238,200
0.238,205
0.238,204
0.24,196
0.24,197
0.24,197
0.24,195
0.24,191
0.24,198
0.24,204
0.24,206
0.24,199
0.24,196
0.24,198
0.24,196
0.242,192
0.242,194
0.242,203
0.242,207
0.242,202
0.242,195
0.242,198
0.242,196
0.242,193
0.242,191
0.244,200
0.244,206
0.244,204
0.244,196
0.244,197
0.244,197
0.244,195
0.244,191
0.244,198
0.244,204
0.244,206
0.246,199
0.246,196
0.246,198
0.246,196
0.246,192
0.246,194
0.246,203
0.246,206
0.246,202
0.246,195
0.246,198
0.248,197
0.248,193
0.248,192
0.248,201
0.248,206
0.248,205
0.248,196
0.248,198
0.248,198
0.248,195
0.2498,191
0.2498,198
0.2498,205
0.2498,206
0.2498,199
0.2498,197
0.2498,198
0.2498,196
0.2498,192
0.2498,195
0.2498,203
0.2518,207
0.2518,202
0.2518,195
0.2518,198
0.2518,197
0.2518,193
0.2518,192
0.2518,201
0.2518,206
0.2518,204
0.2518,196
0.2518,197
0.2538,197
0.2538,195
0.2556,191
0.2576,198
0.2576,205
0.2576,206
0.2576,199
0.2659,197
0.267,198
0.2696,196
0.2716,192
0.2716,195
0.2716,203
0.2716,206
0.2716,202
0.2817,195
0.283,197
0.2856,196
0.2881,193
0.2896,192
0.2916,201
0.2936,205
0.2947,204
0.2979,196
0.2979,197
0.2979,197
0.2979,194
0.2979,191
0.2979,198
0.2979,205
0.2979,206
0.2979,199
0.3136,196
0.3136,198
0.3136,195
0.3136,192
0.3136,195
0.3136,203
0.3136,206
0.3296,201
0.3316,195
0.3316,198
0.3316,197
0.3316,193
0.3316,192
0.3316,201
0.3316,206
0.3455,204
0.3471,196
0.3496,197
0.3516,197
0.3536,194
0.3556,191
0.3576,199
0.3596,205
0.3614,206
0.3614,198
0.3614,197
0.3614,198
0.3614,195
0.3614,192
0.3614,195
0.3614,203
0.3775,206
0.3775,201
0.3816,195
0.3836,198
0.3856,196
0.3881,193
0.3896,192
0.3916,201
0.3936,206
0.3947,204
0.3976,196
0.3996,197
0.4016,197
0.4036,195
0.4056,191
0.4076,198
0.4096,205
0.4113,206
0.4113,198
0.4113,196
0.4113,198
0.4113,195
0.4113,192
0.4113,195
0.4256,203
0.4256,206
0.4256,201
0.4256,195
0.4256,198
0.4256,197
0.4256,193
0.4256,192
0.4416,201
0.4416,206
0.4416,204
0.4416,196
0.4416,197
0.4416,197
0.4416,194
0.4416,191
0.4575,198
0.459,205
0.4611,206
0.4611,198
0.4611,197
0.4611,198
0.4611,196
0.4611,192
0.4737,195
0.4751,203
0.4774,207
0.4774,201
0.4816,195
0.4836,198
0.4856,196
0.4881,193
0.4891,192
0.4916,201
0.4936,206
0.4954,204
0.4976,196
0.4996,197
0.4996,197
0.4996,194
0.5051,191
0.5076,198
0.5076,205
0.5076,206
0.5076,198
0.5076,196
0.5076,198
0.5076,195
0.5211,192
0.5228,195
0.5246,203
0.5246,207
0.53,201
0.53,195
0.5325,197
0.5359,196
0.5359,193
0.5388,192
0.542,201
0.5431,206
0.5456,204
0.5468,196
0.548,197
0.5514,197
0.5514,194
0.5514,191
0.5514,199
0.5514,205
0.5618,206
0.5637,198
0.5637,196
0.5637,197
0.5637,195
0.5637,192
0.5637,195
0.5637,203
0.5777,206
0.5785,201
0.5802,195
0.5823,198
0.5823,196
0.5823,193
0.5888,192
0.5888,201
0.5926,206
0.5953,204
0.5974,195
0.5994,197
0.5994,197
0.5994,194
0.5994,191
0.5994,199
0.6083,205
0.6122,206
0.6135,197
0.6155,197
0.6155,198
0.6155,195
0.6155,191
0.6155,196
0.624,203
0.624,207
0.6301,201
0.6301,195
0.6321,198
0.6321,196
0.6321,193
0.6321,192
0.64,201
0.64,206
0.6453,203
0.6468,195
0.6488,197
0.6488,196
0.6488,193
0.6488,190
0.656,199
0.656,205
0.662,205
0.6635,197
0.6655,196
0.6655,197
0.6655,195
0.6655,192
0.6732,196
0.6732,204
0.6732,207
0.6783,202
0.6802,196
0.6822,198
0.6822,197
0.6822,193
0.6891,193
0.6891,201
0.6891,206
0.6891,203
0.6974,195
0.6974,197
0.6996,197
0.6996,194
0.6996,191
0.6996,199
0.6996,205
0.7124,205
0.7141,197
0.7141,197
0.7161,198
0.7161,195
0.7161,192
0.7161,196
0.7161,204
0.7161,206
0.7298,200
0.7298,195
0.7318,198
0.7318,196
0.7318,193
0.7318,192
0.7318,201
0.7318,206
0.7452,203
0.7466,195
0.7486,197
0.7506,197
0.7506,194
0.7506,191
0.7506,199
0.7506,205
0.7617,205
0.7633,197
0.7653,197
0.7653,197
0.7653,195
0.7653,191
0.7653,196
0.7653,203
0.7773,206
0.78,200
0.78,196
0.78,198
0.78,196
0.78,193
0.7891,193
0.7891,202
0.7924,206
0.7954,203
0.7969,195
0.7989,197
0.7989,197
0.7989,194
0.7989,191
0.7989,199
0.8082,205
0.8118,205
0.8135,197
0.8155,197
0.8155,197
0.8155,195
0.8155,191
0.8155,196
0.8243,204
0.8243,206
0.8243,200
0.8304,196
0.8325,198
0.8325,196
0.8325,193
0.8325,193
0.8401,202
0.8421,206
0.8455,203
0.8468,195
0.8488,197
0.8488,197
0.8488,194
0.8488,191
0.8562,199
0.8562,205
0.8619,205
0.8632,197
0.8652,197
0.8652,197
0.8652,195
0.8652,191
0.8722,196
0.8722,204
0.8722,206
0.8798,200
0.8798,195
0.8818,197
0.8818,196
0.8818,192
0.8897,193
0.8897,202
0.8897,206
0.8954,203
0.8965,195
0.8985,197
0.8985,197
0.8985,194
0.904,191
0.904,199
0.904,205
0.912,205
0.9135,197
0.9135,197
0.9155,197
0.9155,195
0.9155,191
0.9155,196
0.9155,204
0.928,206
0.9298,200
0.9298,196
0.9319,198
0.9319,196
0.9319,193
0.9319,193
0.9319,202
0.9319,206
0.9453,203
0.9464,195
0.9484,198
0.9484,197
0.9484,194
0.9484,191
0.9484,199
0.9484,205
0.9619,205
0.9633,197
0.9653,197
0.9653,197
0.9653,195
0.9653,191
0.9653,196
0.9653,204
0.9762,206
0.9796,200
0.9803,195
0.9824,198
0.9824,196
0.9824,193
0.9824,193
0.9899,202
0.992,206
0.992,203
0.9974,195
0.9995,197
0.9995,197
0.9995,194
0.9995,191
0.9995,199
1.008,205
1.0121,205
1.0121,196
1.0141,197
1.0163,198
1.0163,195
1.0163,191
1.0163,196
1.0241,204
1.0241,206
1.0291,200
1.0305,196
1.0326,197
1.0326,196
1.0326,192
1.0326,193
1.0404,202
1.0404,206
1.0404,203
1.0474,195
1.0474,197
1.0495,196
1.0495,194
1.0495,191
1.0562,199
1.0562,205
1.0622,205
1.0622,196
1.0647,197
1.066,197
1.068,195
1.068,191
1.068,197
1.068,204
1.068,206
1.0785,200
1.0797,196
1.0817,198
1.0817,196
1.0817,192
1.0817,193
1.09,202
1.09,206
1.0954,203
1.0966,195
1.0986,198
1.0986,197
1.0986,194
1.0986,191
1.0986,199
1.0986,205
1.1119,205
1.1135,196
1.1135,197
1.1135,197
1.1135,195
1.1135,191
1.1135,197
1.1135,204
1.1268,206
1.1298,200
1.1298,196
1.1318,198
1.1318,196
1.1318,192
1.1318,193
1.1318,202
1.1427,206
1.1454,203
1.1468,195
1.1489,197
1.1489,197
1.1489,193
1.1489,191
1.1489,200
1.1588,205
1.1623,205
1.1639,196
1.1639,197
1.1659,197
1.1659,195
1.1659,191
1.1659,197
1.1747,204
1.1747,206
1.1794,199
1.1806,196
1.1826,198
1.1826,196
1.1826,192
1.1826,193
1.1906,202
1.1906,206
1.1957,202
1.1976,195
1.1996,198
1.1996,197
1.1996,193
1.1996,191
1.2067,200
1.2094,205
1.2119,205
1.2134,196
1.215,197
1.217,197
1.219,195
1.219,191
1.2227,197
1.2227,204
1.2227,206
1.2298,199
1.2298,196
1.2318,197
1.2318,196
1.2318,192
1.2385,194
1.2405,202
1.2425,206
1.2453,202
1.2466,195
1.2486,197
1.2486,196
1.2486,193
1.2545,191
1.2545,200
1.2545,205
1.2619,204
1.2633,196
1.2654,197
1.2654,197
1.2654,194
1.2654,191
1.2654,197
1.2654,204
1.2654,206
1.2784,199
1.2795,196
1.2795,197
1.2795,196
1.2795,192
1.2795,194
1.2909,202
1.2909,206
1.2943,202
1.2965,195
1.298,198
1.3,196
1.3,193
1.3,191
1.3,200
1.3,205
1.3119,204
1.3119,196
1.3147,197
1.3167,197
1.3167,195
1.3167,191
1.3167,197
1.3167,204
1.3265,206
1.3285,199
1.3306,196
1.3326,197
1.3346,196
1.3366,192
1.3384,194
1.3404,203
1.3404,206
1.3453,202
1.3453,195
1.3453,197
1.3453,197
1.3453,193
1.3538,191
1.3538,200
1.3538,205
1.3538,204
1.362,196
1.362,197
1.362,197
1.362,195
1.3705,191
1.3705,197
1.3705,204
1.3705,206
1.3785,198
1.3785,195
1.3785,197
1.3785,195
1.3865,191
1.3865,193
1.3911,202
1.3911,206
1.3911,201
1.3962,194
1.3962,197
1.3962,196
1.4023,193
1.4023,191
1.4023,201
1.4023,206
1.4023,205
1.4128,197
1.4128,198
1.4128,198
1.4184,195
1.4184,191
1.4184,198
1.4184,205
1.4184,206
1.4184,199
1.4308,196
1.4328,197
1.4343,196
1.4363,192
1.4383,194
1.4403,203
1.4424,206
1.4444,202
1.4464,195
1.4484,197
1.4502,196
1.4522,193
1.4542,191
1.4562,200
1.4582,205
1.4602,204
1.4623,196
1.4643,197
1.466,197
1.4681,195
1.4701,191
1.4721,198
1.4741,205
1.4761,206
1.4781,198
1.4801,196
1.4819,197
1.4839,195
1.4859,192
1.488,194
1.491,203
1.493,206
1.495,202
1.4963,195
1.4978,198
1.4998,196
1.5019,193
1.5039,191
1.5059,200
1.5079,205
1.5119,204
1.5119,196
1.5137,197
1.5157,197
1.5177,194
1.5197,191
1.5217,198
1.5238,205
1.5258,206
1.5278,199
1.5296,196
1.5296,197
1.5296,195
1.5296,192
1.5296,194
1.5296,203
1.5296,206
1.5296,201
1.5453,195
1.5453,197
1.5453,196
1.5453,193
1.5453,191
1.5453,200
1.5453,205
1.561,204
1.5631,195
1.5636,197
1.5656,197
1.5676,194
1.5696,191
1.5716,198
1.5737,205
1.5772,206
1.5792,198
1.58,196
1.5821,197
1.5841,195
1.5861,192
1.5881,195
1.5911,203
1.5929,206
1.5929,201
1.5962,195
1.5982,197
1.6003,196
1.6023,193
1.6043,191
1.6063,200
1.6083,206
1.6098,204
1.6132,195
1.6137,197
1.6168,197
1.6188,194
1.6188,191
1.6188,198
1.625,205
1.625,206
1.6284,198
1.6305,196
1.6325,197
1.6345,195
1.6365,192
1.6385,195
1.6405,203
1.6425,206
1.6445,201
1.646,195
1.648,197
1.65,196
1.652,193
1.654,191
1.656,201
1.656,206
1.656,204
1.6628,196
1.6648,197
1.6668,197
1.6689,194
1.6709,191
1.6719,198
1.6739,205
1.6759,206
1.6779,198
1.68,197
1.682,198
1.684,195
1.686,192
1.6878,195
1.6878,203
1.6913,206
1.6913,201
1.6913,195
1.6913,198
1.6913,196
1.6913,193
1.7038,192
1.7068,201
1.7085,206
1.7102,204
1.712,195
1.7154,197
1.7154,197
1.7154,194
1.7196,191
1.7196,198
1.7196,205
1.7196,206
1.7196,198
1.7196,196
1.7196,197
1.7196,195
1.7356,192
1.7356,195
1.7356,203
1.7356,207
1.7356,201
1.7356,195
1.7356,198
1.7356,196
1.7516,193
1.7516,192
1.7516,201
1.7516,205
1.7516,204
1.7627,195
1.7627,197
1.7627,197
1.7678,194
1.7698,191
1.7718,198
1.7738,205
1.7758,206
1.7779,198
1.7799,196
1.7819,197
1.7837,195
1.7837,191
1.7837,195
1.7913,203
1.7913,206
1.7913,201
1.7913,195
1.7913,197
1.801,196
1.801,193
1.801,192
1.801,201
1.801,206
1.801,204
1.8128,195
1.8154,197
1.8154,197
1.8154,194
1.8154,191
1.8154,198
1.8154,205
1.8154,205
1.8154,198
1.8311,196
1.8323,198
1.8323,195
1.8323,191
1.8323,195
1.8323,203
1.8323,206
1.8323,201
1.8471,195
1.8471,197
1.8471,196
1.8471,193
1.8471,192
1.8471,201
1.8471,206
1.8471,203
1.863,195
1.863,197
1.863,197
1.863,194
1.863,191
1.863,198
1.863,205
1.863,205
1.8789,197
1.8789,197
1.8789,197
1.8789,195
1.8789,191
1.8789,196
1.8914,203
1.8914,206
1.8949,201
1.8949,195
1.8949,197
1.8949,196
1.8949,193
1.8949,192
1.8949,201
1.8949,206
1.9111,203
1.9111,195
1.9111,197
1.9111,197
1.9111,194
1.9111,191
1.9111,198
1.9111,205
1.927,205
1.927,197
1.927,197
1.927,197
1.927,195
1.927,191
1.927,195
1.927,203
1.943,206
1.943,200
1.943,195
1.943,197
1.943,196
1.943,193
1.943,192
1.943,201
1.959,206
1.959,203
1.959,195
1.959,197
1.959,197
1.959,194
1.959,191
1.959,199
1.975,205
1.975,205
1.975,197
1.975,197
1.975,197
1.975,195
1.975,191
1.975,196
1.991,203
1.9915,206
1.9915,200
1.9915,195
1.9915,197
1.9915,196
1.9915,193
1.9915,192
2.007,201
2.007,206
2.007,203
2.007,195
2.007,197
2.007,197
2.007,194
2.007,191
2.0228,199
2.0248,205
2.0268,205
2.0288,197
2.0288,197
2.0288,197
2.0288,195
2.0288,191
2.039,196
2.039,203
2.039,206
2.039,200
2.039,195
2.039,197
2.039,196
2.039,193
2.055,192
2.055,201
2.055,206
2.055,203
2.055,195
2.055,197
2.055,197
2.055,194
2.0709,191
2.0709,199
2.0745,205
2.0766,205
2.0786,197
2.0806,197
2.0826,197
2.0846,195
2.0866,191
2.0887,196
2.0907,203
2.0917,206
2.0937,200
2.0957,195
2.0977,197
2.0998,196
2.1018,192
2.1018,192
2.1018,202
2.1018,206
2.1018,203
2.1018,195
2.1018,197
2.1018,196
2.1193,194
2.1193,191
2.1193,199
2.1193,205
2.1193,205
2.1296,196
2.1296,196
2.1296,197
2.1296,194
2.1296,191
2.1382,196
2.1382,203
2.1382,206
2.1452,199
2.1465,195
2.1485,197
2.1505,196
2.1525,193
2.1543,193
2.1543,203
2.1543,207
2.1543,204
2.1628,195
2.1628,198
2.1628,197
2.1628,194
2.1703,191
2.1703,199
2.1703,205
2.1703,205
2.1703,197
2.1703,197
2.1703,197
2.1703,195
2.1863,191
2.1863,196
2.1863,204
2.1918,206
2.1918,200
2.1918,195
2.1918,197
2.1918,196
2.2023,192
2.2023,193
2.2023,202
2.2023,206
2.2023,203
2.2023,195
2.2023,197
2.2023,197
2.2185,194
2.2185,191
2.2185,199
2.2185,205
2.2185,205
2.2185,196
2.2185,197
2.2185,197
2.2345,195
2.2365,191
2.2365,196
2.2365,204
2.2365,206
2.2365,200
2.2365,195
2.2365,197
2.2504,196
2.2504,192
2.2504,193
2.2504,202
2.2504,206
2.2504,203
2.2504,195
2.2504,197
2.2665,197
2.2665,193
2.2665,191
2.2665,199
2.2665,205
2.2665,205
2.2665,196
2.2665,197
2.2823,197
2.2823,195
2.2823,191
2.2823,196
2.2823,204
2.292,206
2.292,199
2.292,195
2.2981,198
2.2981,196
2.2981,192
2.2981,193
2.2981,202
2.2981,206
2.2981,202
2.2981,195
2.3144,197
2.3144,196
2.3144,194
2.3144,191
2.3144,199
2.3144,205
2.3144,205
2.3144,196
2.3304,197
2.3316,197
2.3336,195
2.3356,191
2.3376,196
2.3397,204
2.3417,206
2.3437,199
2.3457,195
2.3457,197
2.3457,196
2.3457,192
2.3457,193
2.3457,202
2.3457,206
2.3614,202
2.3614,195
2.3614,197
2.3614,196
2.3614,193
2.3614,191
2.3614,199
2.3614,205
2.3772,204
2.3772,196
2.3772,197
2.3772,197
2.3772,195
2.3772,191
2.3772,196
2.3772,204
2.3934,206
2.3934,199
2.3954,195
2.3974,197
2.3994,196
2.4014,192
2.4034,193
2.4054,202
2.4092,206
2.4112,203
2.4112,195
2.4132,198
2.4152,197
2.4173,194
2.4193,191
2.4213,200
2.4251,205
2.4271,205
2.4291,196
2.4311,197
2.4331,197
2.4351,195
2.4371,191
2.4391,197
2.4409,204
2.4429,206
2.445,200
2.4461,196
2.4481,197
2.4501,196
2.4521,192
2.4541,193
2.457,202
2.4579,206
2.4579,202
2.4628,195
2.4633,197
2.4653,197
2.4673,193
2.4693,191
2.4713,200
2.4713,205
2.4713,204
2.4713,196
2.4796,197
2.4816,197
2.4836,195
2.4856,191
2.4874,197
2.4894,204
2.4924,206
2.4944,199
2.4964,196
2.4985,197
2.5005,196
2.5025,192
2.5045,193
2.5065,202
2.5085,206
2.5106,202
2.5126,195
2.5146,197
2.5166,196
2.5184,193
2.5204,191
2.5224,200
2.5244,205
2.5265,205
2.5285,196
2.5305,197
2.5325,197
2.5343,194
2.5343,191
2.5343,197
2.5343,204
2.5343,206
2.5343,199
2.5343,196
2.5343,197
2.5512,196
2.5532,192
2.5553,193
2.5573,202
2.5593,206
2.5613,202
2.5633,194
2.5653,197
2.5663,196
2.5683,193
2.5704,191
2.5724,200
2.5744,205
2.5764,205
2.5784,196
2.5805,197
2.5822,197
2.5842,195
2.5868,191
2.5868,197
2.5899,204
2.5924,206
2.5938,199
2.5964,196
2.5981,197
2.6007,195
2.6022,192
2.6042,194
2.6063,202
2.6083,206
2.6103,202
2.6123,194
2.6141,197
2.6161,196
2.6181,193
2.6201,191
2.6222,200
2.6242,205
2.6262,204
2.6282,196
2.63,197
2.63,197
2.63,195
2.63,191
2.63,197
2.63,204
2.63,206
2.63,199
2.6472,196
2.6493,197
2.6513,195
2.6513,192
2.6513,194
2.6513,202
2.6513,206
2.6611,202
2.6621,194
2.6642,197
2.6662,196
2.6692,193
2.6712,191
2.6733,200
2.6753,205
2.6773,204
2.6785,196
2.6785,197
2.6785,197
2.6785,195
2.6785,191
2.6785,197
2.6785,204
2.6924,206
2.6935,199
2.697,196
2.6991,197
2.6991,195
2.7023,192
2.7044,194
2.7044,202
2.7093,206
2.7093,202
2.7093,194
2.7154,197
2.7174,196
2.7194,193
2.7214,191
2.7235,200
2.7252,205
2.7273,204
2.7293,196
2.7293,197
2.7293,197
2.7293,195
2.7293,191
2.7293,198
2.741,204
2.741,206
2.741,198
2.7462,196
2.7462,197
2.7462,195
2.7462,192
2.7462,194
2.7568,202
2.7588,206
2.7608,202
2.7629,195
2.7629,197
2.7629,196
2.7629,193
2.7629,191
2.7726,200
2.7726,205
2.7726,204
2.7726,196
2.7726,197
2.7726,197
2.7726,194
2.7726,191
2.7887,198
2.7907,204
2.7927,206
2.7927,198
2.7927,196
2.7927,197
2.7927,195
2.8033,192
2.8043,194
2.8043,203
2.8043,206
2.8043,202
2.8043,195
2.8043,198
2.8043,196
2.8043,193
2.8201,191
2.8201,200
2.8201,205
2.8201,204
2.8201,196
2.8306,197
2.8306,197
2.8306,194
2.8372,191
2.839,197
2.841,204
2.843,206
2.8445,198
2.8445,196
2.8445,197
2.8445,195
2.8518,192
2.8518,194
2.8518,203
2.8518,206
2.8518,201
2.8518,195
2.8518,197
2.8518,196
2.869,193
2.869,191
2.869,200
2.869,206
2.869,204
2.869,196
2.869,197
2.8832,197
2.8832,194
2.8832,190
2.8832,198
2.8832,205
2.893,206
2.893,198
2.893,196
2.8994,197
2.9016,195
2.9036,191
2.9036,194
2.9036,202
2.9036,206
2.9036,201
2.9036,194
2.9155,197
2.9155,195
2.9155,192
2.9155,191
2.9155,200
2.9155,205
2.9155,203
2.9155,195
2.9314,197
2.9314,197
2.9314,195
2.9314,191
2.9314,199
2.9314,205
2.9314,206
2.9314,199
2.9474,197
2.9496,198
2.9496,195
2.9496,192
2.9496,195
2.9496,203
2.9496,206
2.9496,201
2.9628,195
2.9656,197
2.9676,196
2.9696,193
2.9716,191
2.9736,201
2.9756,205
2.9774,204
2.9789,196
2.9816,197
2.9836,197
2.9856,194
2.9876,191
2.9896,198
2.9896,205
2.9934,206
2.9947,198
2.9976,196
2.9996,197
3.0016,195
3.0016,192
3.0016,195
3.0016,203
3.0016,206
3.0111,201
3.013,195
3.013,197
3.013,196
3.013,193
3.013,191
3.013,201
3.0261,205
3.0261,204
3.0281,195
3.0301,197
3.0321,197
3.0321,194
3.0321,190
3.0321,198
3.0421,204
3.0421,206
3.0421,198
3.0421,196
3.0421,197
3.0421,195
3.0421,191
3.0421,195
3.0581,203
3.0581,206
3.0581,201
3.0581,195
3.0581,197
3.0581,196
3.0581,193
3.0581,191
3.0741,201
3.0741,206
3.0761,204
3.0781,195
3.0781,197
3.0781,197
3.0781,194
3.0781,190
3.0898,198
3.0898,205
3.0939,205
3.0939,198
3.0939,196
3.0939,197
3.0939,195
3.0939,191
3.1058,195
3.1073,203
3.1073,206
3.1108,201
3.1128,195
3.1156,197
3.1156,196
3.1156,193
3.1217,191
3.1232,201
3.1256,206
3.1256,203
3.1256,195
3.1256,197
3.1256,197
3.1256,193
3.1375,190
3.1375,198
3.1375,205
3.1375,205
3.1375,197
3.1463,196
3.1463,197
3.1463,195
3.1536,191
3.1536,195
3.1536,203
3.1536,206
3.1536,201
3.1633,195
3.1653,197
3.1673,196
3.1693,193
3.1708,191
3.1708,201
3.1708,205
3.1708,204
3.1797,195
3.1812,197
3.1836,197
3.1856,194
3.1876,190
3.1896,198
3.1916,205
3.1916,206
3.1945,197
3.1964,196
3.1996,197
3.2016,195
3.2036,192
3.2056,195
3.2076,203
3.2096,207
3.2113,201
3.2113,195
3.2113,197
3.2113,196
3.2113,193
3.2113,192
3.2113,201
3.2113,206
3.2274,204
3.2286,195
3.2306,197
3.2336,197
3.2356,194
3.2356,191
3.2356,199
3.2356,205
3.2436,205
3.2436,197
3.2456,196
3.2456,197
3.2456,195
3.2456,191
3.2456,195
3.2456,203
3.2597,206
3.2597,201
3.2597,195
3.2597,197
3.2597,196
3.2597,193
3.2597,192
3.2597,201
3.2756,206
3.2771,203
3.278,195
3.278,197
3.278,197
3.278,194
3.278,191
3.278,199
3.2917,205
3.2917,205
3.2949,197
3.2949,196
3.2949,197
3.2949,195
3.2949,191
3.2949,195
3.3077,203
3.3096,206
3.3113,200
3.3113,195
3.3113,197
3.3113,196
3.3113,192
3.3113,192
3.3236,201
3.3251,206
3.3274,203
3.3274,195
3.3316,197
3.3336,196
3.3356,194
3.3376,191
3.3396,199
3.3416,205
3.3436,205
3.3436,197
3.3436,197
3.3436,197
3.3436,195
3.3436,191
3.3554,195
3.3575,203
3.3596,206
3.3596,200
3.3596,195
3.3596,197
3.3596,196
3.3596,192
3.3715,192
3.3733,201
3.3733,206
3.3733,203
3.3733,195
3.3733,197
3.3733,197
3.3733,194
3.3877,191
3.3877,199
3.3877,205
3.3877,205
3.3953,197
3.3972,196
3.3996,197
3.4016,195
3.4036,191
3.4036,196
3.4036,203
3.4036,206
3.4036,200
3.4036,195
3.4036,197
3.4036,196
3.4195,192
3.4195,192
3.4195,201
3.4195,206
3.4195,203
3.4195,195
3.4195,197
3.4195,197
3.4355,194
3.4355,190
3.4395,199
3.4395,205
3.4415,205
3.4435,197
3.447,196
3.449,197
3.4511,195
3.4531,191
3.4551,196
3.4571,203
3.4591,206
3.4611,200
3.4631,195
3.4652,197
3.4669,196
3.4669,192
3.4669,192
3.4669,201
3.4669,206
3.4669,203
3.4795,195
3.4795,197
3.4828,197
3.4842,194
3.4859,191
3.4879,199
3.49,205
3.492,205
3.494,196
3.497,196
3.4988,197
3.5008,195
3.5028,191
3.5049,196
3.5069,203
3.5089,206
3.5109,200
3.5109,195
3.5146,197
3.5146,196
3.5146,192
3.5146,192
3.5146,201
3.5146,206
3.5146,203
3.5146,195
3.5307,197
3.5307,197
3.5307,193
3.5307,191
3.5307,199
3.5307,205
3.5307,205
3.5307,196
3.5469,196
3.5469,197
3.5469,195
3.5469,191
3.5469,196
3.5469,203
3.5469,206
3.5469,200
3.563,195
3.564,197
3.566,196
3.568,192
3.57,193
3.572,202
3.574,206
3.5761,203
3.5791,195
3.5791,197
3.5791,196
3.5791,194
3.5791,191
3.5791,199
3.5791,205
3.5791,205
3.595,196
3.5955,197
3.5955,197
3.5955,195
3.5955,191
3.5955,196
3.5955,204
3.5955,206
3.6111,200
3.6111,196
3.6111,197
3.6111,196
3.6111,192
3.6111,193
3.6111,202
3.6111,206
3.6271,203
3.6271,195
3.6271,197
3.6271,197
3.6271,194
3.6271,191
3.6271,199
3.6271,205
3.6432,205
3.6432,196
3.6432,197
3.6432,197
3.6432,195
3.6432,191
3.6432,197
3.6432,204
3.6591,206
3.6591,199
3.6631,195
3.6648,197
3.6666,195
3.6684,192
3.6702,192
3.672,202
3.6751,205
3.6751,202
3.6751,194
3.6751,197
3.6751,196
3.6751,193
3.6868,190
3.6888,200
3.6908,205
3.6908,205
3.6956,196
3.6956,197
3.6956,198
3.6956,195
3.6956,192
3.6956,197
3.7069,204
3.7084,206
3.7084,200
3.7129,196
3.7151,197
3.7151,196
3.7151,192
3.7151,193
3.7234,202
3.7234,206
3.7234,203
3.729,195
3.7311,197
3.7331,197
3.7351,194
3.7371,191
3.7391,199
3.7391,205
3.7391,205
3.7391,196
3.7391,197
3.7391,197
3.7391,195
3.7391,191
3.7553,197
3.7553,204
3.7553,206
3.7553,199
3.7553,196
3.7553,197
3.7553,196
3.7553,192
3.7712,193
3.7712,202
3.7712,206
3.7712,202
3.7712,195
3.7712,197
3.7712,196
3.7712,193
3.7871,191
3.7884,199
3.7884,205
3.7884,204
3.7884,196
3.7956,197
3.7956,197
3.7956,195
3.8032,191
3.8032,196
3.8032,204
3.8032,206
3.8032,199
3.8032,196
3.8032,197
3.8032,196
3.8191,192
3.8191,193
3.8191,202
3.8191,206
3.8191,202
3.8191,195
3.8191,197
3.8191,196
3.8351,193
3.8351,191
3.8351,199
3.8351,205
3.8351,205
3.8351,196
3.8351,197
3.8351,197
3.8511,195
3.8511,191
3.8511,197
3.8511,204
3.8511,206
3.8511,199
3.8511,196
3.8511,197
3.8673,196
3.8673,192
3.8673,193
3.8673,202
3.8673,206
3.8673,202
3.8673,194
3.8673,197
3.8833,196
3.8833,193
3.8833,191
3.8833,200
3.8833,205
3.8833,205
3.8833,196
3.8958,197
3.8993,197
3.9004,194
3.9024,191
3.9044,197
3.9064,204
3.9084,206
3.9105,199
3.9125,196
3.9145,197
3.9165,195
3.918,192
3.92,194
3.922,202
3.9241,206
3.9261,202
3.9281,194
3.9301,197
3.9321,196
3.9341,193
3.9361,191
3.9382,200
3.9402,205
3.9422,204
3.9442,196
3.946,197
3.946,197
3.946,194
3.946,191
3.946,197
3.946,204
3.946,206
3.946,199
3.962,196
3.962,198
3.962,196
3.962,192
3.962,194
3.962,202
3.962,206
3.962,202
3.978,195
3.978,197
3.978,197
3.978,193
3.978,191
3.978,200
3.978,205
3.978,204
3.9939,196
3.996,197
3.996,197
3.996,194
3.996,191
3.996,197
3.996,204
3.996,206
4.0115,199
4.0131,196
4.0152,198
4.0167,195
4.0184,192
4.0201,194
4.0217,202
4.0237,206
4.0257,202
4.0257,194
4.0257,197
4.0329,196
4.0329,193
4.0329,191
4.0329,200
4.0414,205
4.0429,204
4.0436,196
4.0466,197
4.0486,197
4.0507,194
4.0527,191
4.0547,197
4.0567,204
4.0587,206
4.0607,199
4.0607,196
4.0607,197
4.0607,195
4.0607,192
4.0607,194
4.0727,202
4.0727,206
4.0727,202
4.0727,195
4.0727,197
4.0727,196
4.0727,193
4.0727,191
4.0885,200
4.0905,205
4.0925,204
4.0946,196
4.0961,197
4.0981,197
4.1001,194
4.1021,190
4.1041,197
4.1061,204
4.1081,206
4.1102,199
4.1122,196
4.1142,197
4.1162,195
4.1182,192
4.12,194
4.122,202
4.124,206
4.126,202
4.128,195
4.1301,198
4.1321,196
4.1341,193
4.1371,191
4.1371,200
4.1371,205
4.1371,204
4.1371,196
4.1371,197
4.1371,197
4.1371,194
4.152,191
4.154,197
4.1561,204
4.1581,206
4.1601,198
4.1621,196
4.1641,197
4.1662,195
4.1679,192
4.1699,194
4.1719,202
4.174,206
4.176,202
4.178,195
4.18,197
4.182,196
4.1838,193
4.1858,191
4.1878,200
4.1898,205
4.1918,204
4.1938,196
4.1964,197
4.1984,197
4.1999,194
4.1999,191
4.1999,197
4.1999,204
4.1999,205
4.1999,198
4.1999,196
4.1999,198
4.2156,196
4.2156,192
4.2156,194
4.2156,202
4.2156,206
4.2156,202
4.2156,196
4.2156,199
4.2333,197
4.2353,193
4.2358,191
4.2378,199
4.2398,204
4.2419,203
4.2456,197
4.2474,198
4.2474,198
4.2496,195
4.252,191
4.2537,197
4.2558,203
4.2578,205
4.2616,199
4.2622,197
4.2622,198
4.2622,196
4.2622,192
4.2699,194
4.2699,201
4.2699,205
4.2699,201
4.2699,196
4.2699,198
4.2699,197
4.2699,193
4.2856,191
4.2887,199
4.2913,204
4.2929,203
4.2945,197
4.2966,198
4.2993,198
4.2993,195
4.3013,190
4.3013,197
4.3013,203
4.3013,205
4.3111,199
4.3131,198
4.3152,198
4.3172,196
4.3192,192
4.3212,194
4.3232,201
4.3252,205
4.3272,201
4.3293,196
4.3313,199
4.333,197
4.3359,193
4.3359,191
4.3388,199
4.3388,204
4.3388,203
4.3388,197
4.3388,198
4.3496,198
4.3502,195
4.3532,191
4.3532,197
4.3573,203
4.3592,204
4.3606,199
4.3628,198
4.3655,199
4.3689,196
4.3708,192
4.3708,194
4.3727,201
4.3727,205
4.3774,201
4.3785,196
4.3817,199
4.3837,197
4.3854,194
4.387,191
4.388,199
4.388,204
4.3932,203
4.395,197
4.3967,198
4.3985,197
4.3985,194
4.3985,190
4.3985,197
4.3985,202
4.3985,204
4.3985,198
4.4132,197
4.4153,197
4.4153,195
4.4153,191
4.4153,194
4.4153,201
4.4153,205
4.4274,202
4.4285,197
4.4285,199
4.4323,198
4.4323,194
4.4371,193
4.4371,199
4.4371,204
4.4371,203
4.445,197
4.4459,198
4.4493,198
4.4493,195
4.4493,191
4.4493,197
4.4493,203
4.4493,205
4.4595,199
4.4617,197
4.4617,199
4.4658,196
4.4658,192
4.4658,194
4.4658,201
4.4658,205
4.4756,201
4.4802,196
4.4802,198
4.4824,197
4.4824,193
4.4824,191
4.4824,199
4.4914,204
4.4914,203
4.495,196
4.4971,198
4.4995,198
4.4995,195
4.4995,191
4.4995,197
4.5075,203
4.5092,205
4.5127,198
4.5127,197
4.5155,198
4.5155,195
4.5155,191
4.5155,194
4.5155,201
4.5237,205
4.5237,201
4.5237,196
4.5319,199
4.5319,197
4.5345,193
4.5345,192
4.5345,199
4.5401,204
4.5401,203
4.5456,196
4.5477,198
4.5493,197
4.5498,195
4.5498,191
4.5498,197
4.5561,203
4.5561,204
4.5561,198
4.5629,197
4.5655,198
4.5672,195
4.5689,191
4.5689,194
4.5729,201
4.5729,205
4.5761,201
4.5788,196
4.5809,199
4.5829,196
4.5829,193
4.5829,191
4.5885,199
4.5885,204
4.5885,203
4.5951,196
4.5974,198
4.5979,197
4.5979,194
4.5979,191
4.605,197
4.605,202
4.6085,204
4.6085,198
4.6133,197
4.6141,198
4.6159,195
4.6159,191
4.6215,194
4.6215,201
4.6215,205
4.6215,201
4.63,197
4.6319,198
4.6319,196
4.6347,193
4.6347,191
4.6381,199
4.6381,204
4.6381,203
4.6451,196
4.6473,198
4.6487,198
4.6487,194
4.6533,190
4.6547,197
4.6547,203
4.6547,204
4.66,198
4.6632,198
4.6642,198
4.6642,196
4.6686,192
4.6714,195
4.6724,201
4.6752,205
4.6752,201
4.6789,197
4.6804,199
4.6804,197
4.6804,193
4.6855,192
4.6877,200
4.6877,204
4.6921,203
4.6949,197
4.6971,198
4.6986,198
4.6986,194
4.6986,191
4.7051,198
4.7051,204
4.7051,204
4.7051,198
4.7131,197
4.7141,198
4.7141,196
4.7184,192
4.7202,195
4.7202,201
4.7253,205
4.7256,201
4.7284,196
4.7311,199
4.7335,197
4.7335,193
4.7368,192
4.7385,200
4.7385,204
4.7385,203
4.7448,196
4.7467,198
4.7467,198
4.7467,194
4.7527,191
4.7527,197
4.7527,203
4.7588,204
4.7608,198
4.7632,198
4.765,199
4.7665,195
4.7691,191
4.7691,195
4.7719,202
4.7746,205
4.7761,200
4.7795,197
4.7817,198
4.7817,197
4.7837,193
4.7837,192
4.7837,199
4.7837,204
4.7837,203
4.7949,196
4.7976,198
4.7976,197
4.7976,194
4.7976,190
4.7976,198
4.7976,203
4.7976,204
4.8107,198
4.8119,197
4.8119,198
4.8119,196
4.8119,192
4.8119,195
4.8119,202
4.8119,205
4.8264,201
4.8264,197
4.8306,198
4.8306,197
4.8306,193
4.8306,192
4.8306,199
4.8306,204
4.8422,202
4.8422,196
4.8422,198
4.8422,197
4.8422,195
4.8422,191
4.8422,197
4.8422,203
4.8582,204
4.8602,198
4.8621,197
4.8655,198
4.8655,195
4.8655,191
4.8655,195
4.8655,202
4.874,204
4.874,200
4.8791,196
4.8818,198
4.8818,197
4.8818,193
4.8818,192
4.8818,200
4.89,204
4.89,202
4.8957,196
4.8979,198
4.8991,197
4.9011,195
4.9031,191
4.9052,198
4.9072,203
4.9092,204
4.9112,197
4.9122,197
4.9151,198
4.9157,195
4.9157,191
4.9157,195
4.9157,201
4.9157,205
4.9157,200
4.929,196
4.9309,199
4.9309,197
4.9347,193
4.9369,192
4.9369,200
4.9404,204
4.9423,202
4.9423,196
4.9474,198
4.9494,197
4.9515,194
4.9515,191
4.9541,198
4.9541,203
4.9541,204
4.9541,197
4.9541,198
4.9541,198
4.9672,195
4.9672,191
4.9672,195
4.9672,202
4.9672,204
4.9672,200
4.9672,197
4.9672,199
4.9832,197
4.9854,193
4.9854,192
4.9883,200
4.9904,204
4.9924,202
4.9952,196
4.9979,198
4.9989,198
4.9989,194
5.0022,191
5.0042,198
5.0063,203
5.0083,204
5.0113,197
5.0128,198
5.0163,198
5.0168,195
5.0188,191
5.0216,196
5.024,202
5.024,204
5.0271,200
5.0293,197
5.032,199
5.0332,197
5.035,193
5.0376,192
5.0395,200
5.04,204
5.04,202
5.0454,196
5.0478,198
5.0487,197
5.0487,194
5.0487,191
5.0487,198
5.0575,203
5.0596,204
5.0615,197
5.0693,198
5.071,198
5.0714,195
5.0714,191
5.0727,196
5.0727,202
5.0764,204
5.0768,200
5.0795,197
5.0812,198
5.0845,196
5.0863,193
5.087,193
5.0896,200
5.091,204
5.0932,203
5.0939,196
5.0963,199
5.0979,197
5.1015,194
5.1015,191
5.1042,198
5.1062,203
5.1082,204
5.1102,197
5.1137,198
5.1144,198
5.1164,195
5.1184,192
5.1204,195
5.1225,201
5.1245,205
5.1265,200
5.1292,196
5.1313,198
5.1328,196
5.1348,191
5.1368,192
5.1388,200
5.1388,204
5.1388,201
5.144,195
5.1465,198
5.1465,196
5.1465,193
5.1465,191
5.1465,199
5.1465,204
5.1465,205
5.1598,198
5.1618,199
5.1618,199
5.1618,196
5.1691,191
5.1691,196
5.1691,202
5.1691,205
5.1691,200
5.1787,197
5.18,199
5.18,197
5.18,192
5.18,192
5.18,200
5.18,204
5.18,202
5.1956,195
5.1956,199
5.1982,197
5.1982,194
5.1982,191
5.1982,198
5.1982,203
5.1982,204
5.2108,197
5.2108,198
5.2108,198
5.2108,195
5.2108,191
5.2108,195
5.2108,202
5.2108,205
5.2267,200
5.2267,197
5.2297,198
5.2297,196
5.2297,192
5.2297,193
5.2297,200
5.2297,204
5.2424,202
5.2424,196
5.2469,198
5.2485,197
5.2485,194
5.2485,191
5.2485,198
5.2485,203
5.2582,204
5.2582,197
5.263,198
5.263,198
5.263,195
5.263,191
5.263,196
5.263,202
5.274,205
5.274,199
5.2786,197
5.2786,198
5.2786,196
5.2786,192
5.2786,193
5.2786,201
5.2898,204
5.2898,201
5.2898,196
5.2968,198
5.2983,197
5.2983,194
5.2983,191
5.2983,198
5.306,204
5.306,204
5.306,197
5.306,198
5.306,198
5.306,195
5.306,191
5.306,196
5.3219,202
5.3219,205
5.3219,199
5.3219,196
5.3299,197
5.3299,195
5.3299,192
5.3299,193
5.3378,201
5.3378,205
5.3378,201
5.3378,194
5.3465,197
5.3465,196
5.3465,193
5.3465,191
5.3539,199
5.3539,205
5.3539,204
5.3539,196
5.3631,197
5.3631,197
5.3631,195
5.3631,191
5.3697,197
5.3697,204
5.3697,205
5.3697,199
5.3697,196
5.3798,197
5.3798,195
5.3798,192
5.3857,193
5.3857,202
5.3857,206
5.3857,202
5.3857,195
5.3857,197
5.3984,196
5.3984,193
5.4017,191
5.4017,200
5.4017,205
5.4017,204
5.4017,196
5.4017,197
5.4017,197
5.4017,194
5.4177,191
5.4177,197
5.4177,204
5.4177,206
5.4177,199
5.4296,196
5.4296,198
5.4296,196
5.4296,192
5.4296,194
5.4296,202
5.4296,206
5.4296,202
5.4449,195
5.4449,197
5.4449,196
5.4449,193
5.4449,191
5.4449,200
5.4449,205
5.4449,204
5.4611,196
5.4611,197
5.4646,197
5.4646,194
5.4646,191
5.4646,197
5.4646,204
5.4646,206
5.4771,199
5.4771,196
5.4771,198
5.4771,195
5.4771,192
5.4771,194
5.4771,202
5.4771,206
5.4931,202
5.4931,195
5.4931,198
5.4987,196
5.4987,193
5.4987,191
5.4987,200
5.4987,205
5.5089,204
5.5089,196
5.5089,197
5.5089,197
5.5089,194
5.5089,191
5.5089,197
5.5089,204
5.5252,206
5.5252,199
5.5252,196
5.5302,198
5.5302,195
5.5302,192
5.5302,194
5.5302,202
5.5412,206
5.5412,201
5.5412,195
5.5471,197
5.5471,196
5.5471,193
5.5471,191
5.5471,200
5.5574,205
5.5574,204
5.5574,196
5.5634,197
5.5634,197
5.5634,194
5.5634,190
5.5634,197
5.5736,204
5.5736,205
5.577,198
5.5787,196
5.5803,198
5.5834,195
5.5852,192
5.587,194
5.5898,202
5.5898,206
5.5898,201
5.5898,195
5.5898,198
5.5992,196
5.5992,193
5.5992,191
5.6056,200
5.6056,205
5.6056,204
5.6056,196
5.6132,197
5.6132,197
5.6132,194
5.6132,190
5.6217,197
5.6217,204
5.6217,205
5.6217,198
5.6217,196
5.6301,197
5.6301,196
5.6301,192
5.6301,194
5.6301,202
5.6301,206
5.6301,201
5.6459,195
5.6459,198
5.6459,196
5.6459,193
5.6459,191
5.6459,200
5.6459,205
5.6459,204
5.6618,196
5.6618,198
5.6618,197
5.6618,195
5.6618,191
5.6618,197
5.6618,203
5.6618,205
5.6618,199
5.6787,197
5.6809,198
5.6809,196
5.6809,192
5.6809,194
5.6809,201
5.6809,205
5.6936,201
5.6936,196
5.696,198
5.696,197
5.6998,193
5.6998,191
5.6998,199
5.6998,204
5.7097,203
5.7102,196
5.7121,198
5.7121,198
5.7121,195
5.7121,191
5.7121,197
5.7121,203
5.7252,205
5.7252,199
5.7252,197
5.7252,198
5.7252,196
5.7252,192
5.7252,194
5.7252,201
5.7412,205
5.7412,201
5.7454,196
5.7474,199
5.7474,197
5.7474,193
5.7474,191
5.7474,199
5.7571,203
5.7571,203
5.7571,197
5.7634,199
5.7634,198
5.7634,195
5.7634,190
5.7634,197
5.7728,203
5.7748,204
5.7775,199
5.7792,198
5.7808,198
5.7827,196
5.7846,192
5.7846,194
5.7886,201
5.7886,204
5.7926,201
5.7954,196
5.7972,199
5.7987,198
5.8002,193
5.8002,191
5.8002,199
5.8002,204
5.8002,204
5.8002,197
5.8124,198
5.8124,198
5.8124,194
5.8124,190
5.8124,196
5.8124,202
5.8124,205
5.8124,199
5.8295,198
5.8295,199
5.8295,196
5.8295,191
5.8295,194
5.8295,201
5.8295,205
5.8295,201
5.8457,196
5.8457,199
5.848,197
5.848,193
5.848,191
5.848,199
5.848,203
5.848,203
5.8604,197
5.8634,198
5.8634,197
5.8634,194
5.8634,190
5.8634,197
5.8634,202
5.8634,204
5.8763,198
5.8786,197
5.8798,198
5.8798,195
5.8798,191
5.8798,194
5.8798,201
5.8798,205
5.8923,202
5.8923,197
5.8963,199
5.8963,198
5.9012,194
5.9034,192
5.9034,199
5.9034,203
5.9034,203
5.9123,197
5.9135,199
5.9135,198
5.9171,195
5.9191,191
5.9211,197
5.9227,203
5.9227,204
5.9227,199
5.9292,198
5.9292,199
5.9292,195
5.9292,192
5.9377,194
5.9377,201
5.9377,205
5.9377,201
5.9456,196
5.9456,199
5.9456,197
5.9456,193
5.9538,192
5.9538,199
5.9538,204
5.9538,203
5.9538,197
5.9622,199
5.9639,198
5.9639,195
5.9639,191
5.9639,197
5.9639,203
5.9639,204
5.9639,199
5.9783,198
5.9783,199
5.9783,196
5.9783,191
5.9783,194
5.9783,201
5.9783,204
5.9783,201
5.9942,197
5.9942,199
5.9942,197
6.0006,193
6.0006,192
6.0006,199
6.0006,203
6.0006,203
6.0101,197
6.0101,199
6.0101,198
6.0101,194
6.0101,191
6.0101,197
6.0101,202
6.0259,204
6.0271,198
6.0271,198
6.0271,198
6.0271,196
6.0271,192
6.0271,194
6.0271,201
6.0271,205
6.043,201
6.0446,198
6.0446,201
6.0446,198
6.0446,193
6.0446,192
6.0446,199
6.0577,202
6.0577,203
6.0577,197
6.0577,199
6.0577,198
6.0577,194
6.0577,191
6.0577,198
6.0737,202
6.0758,203
6.0758,198
6.0758,199
6.0758,199
6.0758,197
6.0758,191
6.0758,195
6.0758,200
6.0896,203
6.093,201
6.0946,197
6.0946,199
6.0946,197
6.1006,193
6.1006,192
6.1055,199
6.1071,202
6.1096,202
6.1096,197
6.1096,199
6.1096,198
6.1096,195
6.1096,191
6.1214,197
6.1214,201
6.1214,203
6.1214,198
6.1214,200
6.1214,199
6.1214,196
6.1214,191
6.1376,195
6.1386,200
6.1403,203
6.1431,201
6.1444,198
6.1444,199
6.1444,197
6.1444,193
6.1537,192
6.1552,199
6.1552,203
6.1552,203
6.1552,197
6.1552,200
6.1552,199
6.1552,195
6.1693,191
6.1693,196
6.1729,201
6.1754,203
6.1773,199
6.18,199
6.1815,201
6.1836,196
6.185,192
6.1861,194
6.189,200
6.189,203
6.1932,201
6.1932,197
6.1977,199
6.1982,198
6.201,193
6.2019,192
6.2019,198
6.2019,202
6.2096,202
6.2096,197
6.2139,199
6.2151,199
6.2176,195
6.2192,191
6.2192,196
6.2236,202
6.2256,203
6.2256,199
6.2295,198
6.231,199
6.231,196
6.2351,192
6.2374,194
6.2395,199
6.2395,203
6.2433,201
6.2458,197
6.2471,199
6.2475,197
6.2506,193
6.2533,191
6.2533,199
6.2533,203
6.2584,203
6.26,197
6.2632,199
6.2652,198
6.2673,195
6.2695,192
6.2695,196
6.2731,201
6.2754,203
6.277,198
6.2784,197
6.281,199
6.283,196
6.283,192
6.2866,194
6.2866,200
6.2912,203
6.2934,201
6.2952,197
6.2974,199
6.2974,197
6.301,193
6.303,192
6.303,198
6.307,202
6.3084,203
6.3117,197
6.3131,199
6.3137,199
6.3167,195
6.3167,191
6.3167,196
6.3167,201
6.3251,203
6.327,198
6.3298,198
6.3298,199
6.3335,196
6.3345,192
6.3363,194
6.3393,200
6.3414,204
6.3414,200
6.3414,197
6.3473,199
6.3497,197
6.3497,194
6.3497,192
6.3497,198
6.3497,203
6.359,202
6.3619,197
6.3619,199
6.3648,198
6.3674,195
6.3689,191
6.3689,196
6.3689,201
6.3738,203
6.3738,197
6.3797,198
6.3801,199
6.3819,196
6.3819,192
6.3873,195
6.3873,200
6.391,203
6.391,201
6.3953,197
6.3953,199
6.3953,197
6.4014,193
6.4014,194
6.4014,198
6.4071,203
6.4071,202
6.4071,196
6.4071,199
6.4071,198
6.4071,195
6.4071,191
6.4071,196
6.4229,201
6.4229,203
6.4229,198
6.4229,198
6.4229,199
6.4229,196
6.4229,192
6.4229,195
6.439,200
6.439,203
6.439,201
6.4453,197
6.4453,199
6.4453,197
6.4453,193
6.4453,193
6.455,199
6.4575,203
6.4588,202
6.4609,196
6.4609,199
6.4609,198
6.4609,195
6.4609,191
6.4709,197
6.4709,201
6.4709,202
6.4709,198
6.4709,199
6.4709,199
6.4709,196
6.4709,192
6.4871,194
6.4896,200
6.4916,203
6.4932,200
6.4932,197
6.4932,199
6.4932,197
6.5016,194
6.5033,192
6.5033,198
6.5033,202
6.5033,202
6.5033,196
6.5033,199
6.5033,198
6.5033,195
6.5195,191
6.5212,197
6.5236,202
6.5251,203
6.5272,197
6.5272,198
6.5272,199
6.5272,196
6.5356,191
6.5356,194
6.5356,201
6.5356,204
6.5356,200
6.5356,195
6.5485,198
6.5485,196
6.5509,193
6.5509,193
6.5553,201
6.5553,205
6.5553,202
6.5623,194
6.5634,197
6.5648,196
6.5668,194
6.5689,191
6.5689,199
6.5689,205
6.5689,204
6.5689,195
6.58,196
6.58,197
6.5821,195
6.5821,191
6.5821,197
6.5821,204
6.5821,206
6.5939,199
6.5956,195
6.5956,197
6.5988,196
6.5999,192
6.6033,193
6.6051,202
6.6072,206
6.6083,202
6.6099,194
6.6136,197
6.6151,196
6.6151,193
6.6151,190
6.6151,199
6.6151,204
6.6256,204
6.6256,195
6.6295,196
6.6295,196
6.6316,194
6.6316,190
6.6316,196
6.6316,204
6.6414,206
6.6414,199
6.6454,196
6.647,198
6.648,196
6.648,193
6.648,194
6.648,202
6.6574,206
6.6574,202
6.6622,194
6.6622,197
6.6643,196
6.6666,193
6.6666,191
6.6666,200
6.6732,205
6.6732,204
6.6732,196
6.6783,197
6.6801,197
6.6821,195
6.6821,191
6.6821,197
6.689,204
6.689,206
6.689,199
6.6954,196
6.6971,198
6.6991,196
6.7018,192
6.7018,193
6.7051,202
6.7051,206
6.7051,202
6.7051,195
6.7129,197
6.7144,196
6.7165,193
6.7165,191
6.7165,200
6.7165,205
6.7165,204
6.7289,196
6.7294,197
6.7307,197
6.7327,194
6.7327,191
6.7327,197
6.7327,204
6.7327,206
6.7327,199
6.7454,196
6.7472,197
6.7492,196
6.7492,192
6.7492,193
6.7492,202
6.7492,206
6.7492,202
6.762,194
6.7635,197
6.7635,196
6.7655,193
6.7655,191
6.7655,199
6.7655,205
6.7757,204
6.7785,196
6.7785,197
6.7805,197
6.7825,194
6.7825,190
6.7825,197
6.7825,204
6.7915,205
6.7915,199
6.7953,196
6.7971,197
6.7971,196
6.7971,192
6.8023,193
6.8023,202
6.8075,206
6.8092,202
6.812,194
6.8136,197
6.8136,196
6.8157,193
6.8157,191
6.8157,200
6.8234,205
6.8234,204
6.8286,196
6.8289,197
6.8308,197
6.8329,194
6.8329,191
6.8329,197
6.8393,204
6.8393,205
6.8393,199
6.8454,196
6.8466,197
6.8487,195
6.8487,192
6.8487,194
6.8554,202
6.8554,206
6.8554,201
6.8621,194
6.8635,197
6.8655,196
6.8655,193
6.8655,191
6.8714,200
6.8714,205
6.8714,204
6.8714,196
6.8796,197
6.8802,197
6.8802,194
6.8802,191
6.8802,197
6.8802,204
6.8802,206
6.8802,199
6.8951,196
6.8951,198
6.899,195
6.9011,191
6.9027,194
6.9027,202
6.9027,206
6.9027,201
6.9121,195
6.9139,198
6.9139,196
6.9159,193
6.9159,191
6.9159,200
6.9159,205
6.9159,204
6.9283,196
6.9283,197
6.9299,197
6.9319,194
6.9319,191
6.9319,197
6.9319,204
6.9319,206
6.9431,199
6.9454,196
6.9476,198
6.9496,195
6.9496,192
6.9496,194
6.9496,202
6.9496,206
6.9591,201
6.962,195
6.9635,197
6.9655,196
6.9672,193
6.9691,191
6.971,200
6.9733,205
6.9748,204
6.9759,196
6.9785,197
6.98,197
6.982,194
6.982,190
6.982,197
6.982,204
6.9904,205
6.9914,198
6.995,196
6.9965,197
6.9965,195
6.9965,192
7.0029,194
7.0029,202
7.0061,206
7.0082,201
7.012,195
7.0129,198
7.0139,196
7.0139,193
7.0139,191
7.0139,200
7.0221,205
7.0221,204
7.0221,196
7.0283,197
7.0303,197
7.0323,194
7.0323,191
7.0323,197
7.0381,204
7.0381,206
7.0381,198
7.0451,196
7.0465,197
7.0485,195
7.0485,192
7.0485,194
7.0485,202
7.0485,206
7.0485,201
7.0485,195
7.0618,198
7.064,196
7.0661,193
7.0661,191
7.0661,200
7.0661,205
7.0661,203
7.0778,195
7.0784,197
7.0784,197
7.0784,194
7.0784,191
7.0863,198
7.0863,204
7.0863,205
7.0929,198
7.0949,196
7.0949,197
7.098,195
7.098,191
7.1029,194
7.1029,202
7.1029,206
7.1029,201
7.1106,195
7.1131,198
7.1131,196
7.1131,193
7.1187,191
7.1206,200
7.1206,205
7.1206,204
7.127,196
7.1281,197
7.1281,197
7.1281,194
7.1341,190
7.1341,198
7.1341,204
7.1341,205
7.1431,198
7.1431,196
7.1431,197
7.1487,195
7.1487,191
7.1487,194
7.1487,203
7.1487,206
7.1591,201
7.1591,195
7.1636,197
7.1636,196
7.1636,193
7.1636,191
7.1636,200
7.1636,205
7.1752,204
7.1752,196
7.1795,197
7.1795,197
7.1835,194
7.1835,191
7.187,198
7.187,204
7.1901,205
7.1901,198
7.1956,196
7.1969,198
7.1969,195
7.1969,191
7.2031,195
7.2031,202
7.2031,206
7.2031,201
7.2031,195
7.2121,197
7.2121,196
7.2121,193
7.2121,192
7.2121,200
7.2121,205
7.2121,203
7.2121,195
7.2277,197
7.2296,197
7.2296,194
7.2296,190
7.2296,198
7.2296,204
7.2296,205
7.2437,198
7.2437,197
7.2463,198
7.2463,195
7.2463,191
7.2463,195
7.2463,203
7.2463,206
7.2594,201
7.2623,195
7.2623,198
7.2623,196
7.2623,193
7.2623,192
7.2623,201
7.2623,205
7.2752,203
7.2752,195
7.2752,197
7.2809,197
7.2809,194
7.2809,191
7.2809,198
7.2809,204
7.2911,205
7.2911,198
7.2911,197
7.2911,197
7.2911,195
7.2911,191
7.3035,195
7.3035,203
7.3072,206
7.3072,201
7.3072,195
7.3122,197
7.3122,196
7.3122,192
7.3122,192
7.3122,200
7.3232,205
7.3252,203
7.3272,195
7.3285,197
7.3306,197
7.3327,194
7.3327,190
7.3327,198
7.3327,204
7.3327,205
7.3327,197
7.3327,196
7.3462,198
7.3486,195
7.3486,191
7.3486,195
7.3486,203
7.3486,206
7.3486,200
7.3625,195
7.3635,197
7.3635,195
7.3635,192
7.3635,191
7.3701,200
7.3701,205
7.3701,202
7.3777,195
7.3786,197
7.3798,196
7.3831,193
7.3851,191
7.3872,198
7.3891,205
7.3911,206
7.3931,198
7.3952,197
7.3971,198
7.3991,196
7.4011,192
7.4011,195
7.4039,203
7.4039,206
7.4039,201
7.412,195
7.4135,197
7.4151,196
7.4151,193
7.4151,192
7.4201,201
7.4201,205
7.4201,203
7.4201,195
7.4285,197
7.4285,197
7.4285,194
7.4285,191
7.4285,198
7.4285,205
7.4285,205
7.4285,197
7.4445,197
7.4445,198
7.4445,195
7.4445,191
7.4445,195
7.4445,203
7.4445,206
7.4601,200
7.4601,196
7.4601,198
7.4601,196
7.4601,192
7.4601,192
7.4601,201
7.4601,205
7.4761,203
7.4773,195
7.4773,197
7.4816,197
7.4816,194
7.4816,191
7.4816,198
7.4816,205
7.492,205
7.492,197
7.492,197
7.492,197
7.492,195
7.492,191
7.492,195
7.5044,203
7.508,206
7.508,200
7.5112,195
7.5112,198
7.5156,196
7.5176,192
7.5196,192
7.5216,201
7.5236,205
7.5256,203
7.5256,195
7.5256,197
7.5256,197
7.5256,194
7.5256,191
7.5256,199
7.5395,204
7.5416,205
7.5436,197
7.5436,197
7.5436,197
7.5436,195
7.5436,191
7.5436,196
7.5556,203
7.5572,205
7.5572,200
7.5572,195
7.5572,197
7.5572,196
7.5572,192
7.5572,192
7.5715,201
7.5731,205
7.5731,203
7.5731,195
7.5731,197
7.5731,197
7.5731,193
7.5731,190
7.5876,198
7.5876,204
7.5876,205
7.5876,197
7.5876,197
7.5876,197
7.5876,195
7.5876,191
7.6036,196
7.6046,203
7.6076,205
7.6096,200
7.6112,196
7.6112,197
7.6112,196
7.6112,192
7.6195,193
7.6216,201
7.6216,205
7.6216,203
7.6216,195
7.6216,197
7.6216,197
7.6216,194
7.6355,191
7.6376,199
7.6376,205
7.6376,205
7.6376,197
7.6454,197
7.6454,198
7.6454,195
7.6515,191
7.6536,196
7.6556,203
7.6576,206
7.6596,200
7.6596,196
7.6596,198
7.6596,196
7.6674,192
7.6691,193
7.6716,201
7.6736,205
7.6756,203
7.6772,195
7.6772,198
7.6772,197
7.6837,194
7.6852,191
7.6852,199
7.6852,204
7.6852,205
7.6852,196
7.6954,197
7.6954,198
7.6996,195
7.6996,191
7.6996,196
7.705,203
7.705,205
7.705,200
7.705,196
7.705,198
7.7157,196
7.7173,192
7.7196,193
7.7218,201
7.7236,205
7.7256,202
7.7271,195
7.7271,198
7.7315,197
7.7315,194
7.7315,191
7.7315,199
7.7315,204
7.7315,204
7.7315,196
7.7315,197
7.7477,197
7.7496,195
7.7516,191
7.7536,196
7.7556,203
7.7576,206
7.7576,199
7.7576,196
7.7576,198
7.7639,196
7.7639,192
7.7639,193
7.7639,201
7.7639,205
7.7639,203
7.7639,195
7.7639,197
7.7799,197
7.7799,193
7.7799,191
7.7799,199
7.7799,205
7.7799,204
7.7799,196
7.7799,197
7.7958,197
7.7958,195
7.7958,191
7.7958,196
7.8051,203
7.8051,206
7.8051,199
7.8119,196
7.8119,197
7.8155,196
7.8155,192
7.8155,193
7.8155,201
7.8155,205
7.8155,202
7.8279,195
7.8279,198
7.8279,197
7.8279,193
7.8279,191
7.8279,199
7.8279,205
7.8279,204
7.8439,196
7.8439,197
7.8476,197
7.8476,195
7.8476,191
7.8476,196
7.8476,203
7.8476,205
7.8599,199
7.8599,196
7.8599,198
7.8599,196
7.8599,192
7.8599,193
7.8599,201
7.8599,206
7.8759,202
7.8771,195
7.8778,197
7.8778,197
7.8778,193
7.8778,191
7.8778,199
7.8778,205
7.8917,204
7.8936,196
7.8945,197
7.8976,198
7.8988,195
7.8988,191
7.8988,196
7.9057,203
7.9077,205
7.9077,199
7.9077,196
7.9077,198
7.9077,196
7.9077,192
7.9077,193
7.9077,201
7.9238,205
7.9238,202
7.9273,195
7.9273,198
7.9273,196
7.9273,193
7.9273,191
7.9273,199
7.9399,204
7.9415,204
7.9415,196
7.9415,197
7.9471,197
7.9496,194
7.9516,191
7.9531,196
7.9556,203
7.9576,205
7.9596,199
7.9612,196
7.9621,197
7.9621,196
7.9621,192
7.9621,193
7.9621,202
7.9736,205
7.9756,202
7.9772,195
7.9772,198
7.9772,197
7.9772,193
7.9772,191
7.9772,199
7.9897,205
7.9897,204
7.9897,196
7.9954,197
7.9954,197
7.9954,194
7.9954,191
7.9954,197
8.0058,204
8.0076,205
8.0096,199
8.0113,196
8.0113,198
8.0113,196
8.0113,192
8.0113,193
8.0218,202
8.0218,205
8.0218,202
8.0218,195
8.0218,198
8.0218,196
8.0218,193
8.0218,191
8.0378,199
8.0396,205
8.0396,204
8.0396,196
8.0454,197
8.0454,197
8.0454,195
8.0454,191
8.0538,197
8.0556,203
8.0576,205
8.0596,199
8.0596,196
8.0596,198
8.0596,196
8.0596,192
8.0699,193
8.0699,202
8.0699,205
8.0699,201
8.0699,195
8.0699,197
8.0699,196
8.0699,193
8.0859,191
8.0876,199
8.0896,204
8.0916,203
8.0916,195
8.0916,197
8.0916,197
8.0916,194
8.1018,190
8.1018,197
8.1038,204
8.1058,206
8.1078,199
8.1078,197
8.1078,198
8.1078,196
8.1177,192
8.1177,194
8.1197,203
8.1197,206
8.1197,202
8.1197,195
8.1197,198
8.1197,196
8.1337,193
8.1351,191
8.1376,200
8.1376,205
8.1376,204
8.1376,196
8.1454,197
8.1454,197
8.1497,194
8.1516,191
8.1536,197
8.1556,204
8.1576,205
8.1576,198
8.1576,196
8.1576,197
8.1655,196
8.1676,192
8.1696,194
8.1716,202
8.1736,206
8.1736,201
8.1736,195
8.1736,197
8.1814,196
8.1836,193
8.1836,191
8.1836,200
8.1836,205
8.1836,204
8.1836,196
8.1836,197
8.1972,197
8.1972,194
8.1972,191
8.1972,197
8.2058,204
8.2058,205
8.2058,198
8.2058,196
8.2134,197
8.2156,195
8.2176,191
8.2196,194
8.2196,202
8.2196,205
8.2196,201
8.2196,195
8.2295,198
8.2295,196
8.2295,193
8.2295,191
8.2295,200
8.2295,205
8.2295,204
8.2295,196
8.2452,197
8.2452,197
8.2452,194
8.2452,190
8.2452,197
8.2452,204
8.2452,205
8.2452,198
8.261,196
8.261,197
8.261,195
8.261,191
8.261,194
8.261,202
8.261,206
8.261,201
8.2772,195
8.2772,198
8.2772,196
8.2772,193
8.2772,191
8.2772,200
8.2772,205
8.2772,204
8.2931,196
8.2931,197
8.2968,197
8.2968,194
8.2968,190
8.2968,197
8.306,204
8.306,205
8.3092,198
8.3112,196
8.3112,198
8.3112,195
8.3112,192
8.3112,194
8.3112,202
8.3112,206
8.3251,201
8.3251,195
8.3251,197
8.3251,196
8.3251,193
8.3251,191
8.3251,200
8.3251,205
8.341,203
8.3436,196
8.3436,197
8.3436,197
8.3436,194
8.3436,191
8.3436,198
8.3436,204
8.357,205
8.3598,198
8.3598,196
8.3598,198
8.3598,195
8.3598,192
8.3598,195
8.3598,202
8.3731,206
8.3752,201
8.3771,195
8.3771,198
8.3771,196
8.3771,193
8.3771,191
8.3771,200
8.389,205
8.391,203
8.391,196
8.391,197
8.391,197
8.391,194
8.391,190
8.391,198
8.4049,204
8.4066,205
8.4066,198
8.4066,196
8.4066,197
8.4066,195
8.4066,191
8.4066,195
8.4211,203
8.4211,206
8.4211,201
8.4211,195
8.4211,198
8.4211,196
8.4211,193
8.4211,191
8.437,200
8.4396,205
8.4396,203
8.4396,195
8.4396,197
8.4396,197
8.4396,194
8.4396,190
8.4531,198
8.4531,204
8.4531,205
8.4531,198
8.4531,197
8.4531,197
8.4531,195
8.4531,191
8.469,195
8.4713,202
8.473,206
8.4756,201
8.4756,195
8.4798,197
8.4812,196
8.4836,192
8.4856,191
8.487,200
8.4877,205
8.4877,203
8.4877,195
8.4877,197
8.4959,197
8.4959,194
8.4959,191
8.4959,198
8.4959,204
8.507,205
8.5096,197
8.5116,196
8.5128,197
8.5145,195
8.5179,191
8.5197,195
8.5216,203
8.5236,206
8.5256,200
8.5272,195
8.5272,198
8.5311,196
8.5331,193
8.5351,192
8.5371,201
8.5391,205
8.5411,203
8.5431,195
8.5445,197
8.5471,197
8.5491,194
8.5511,190
8.5511,198
8.5511,204
8.5511,205
8.5591,197
8.5591,197
8.5591,197
8.5591,195
8.5591,191
8.5591,195
8.5591,203
8.5591,206
8.5752,200
8.5752,195
8.5752,198
8.5752,196
8.5752,193
8.5752,192
8.5752,201
8.5752,205
8.5911,203
8.5933,195
8.5947,197
8.5947,197
8.5947,194
8.5947,190
8.5947,198
8.5947,204
8.6076,205
8.6076,197
8.6076,196
8.6076,197
8.6076,195
8.6076,191
8.6076,195
8.6076,203
8.6236,206
8.6251,200
8.6251,195
8.6251,197
8.6251,196
8.6251,193
8.6251,192
8.6251,201
8.6397,205
8.6409,203
8.6431,195
8.6431,197
8.6431,197
8.6431,193
8.6431,190
8.6431,198
8.6558,204
8.6576,205
8.6596,197
8.6596,197
8.6596,197
8.6596,195
8.6596,191
8.6596,195
8.6718,203
8.6736,206
8.6756,200
8.6771,195
8.6771,198
8.6816,196
8.6836,192
8.6856,192
8.6876,201
8.6896,205
8.6896,203
8.6896,195
8.6896,197
8.6896,197
8.6896,194
8.6896,191
8.7034,198
8.7034,205
8.7077,205
8.7077,197
8.7077,197
8.7077,197
8.7077,195
8.7077,191
8.7197,196
8.7216,203
8.7236,206
8.7256,200
8.7271,195
8.7271,197
8.7271,196
8.7271,192
8.7355,192
8.7355,201
8.7355,205
8.7355,203
8.7355,195
8.7355,197
8.7355,197
8.7355,194
8.7515,191
8.7515,199
8.7515,205
8.7515,205
8.7515,197
8.7515,197
8.7515,198
8.7515,195
8.7675,191
8.7675,196
8.7717,203
8.7736,206
8.7756,200
8.7756,195
8.7756,197
8.7756,196
8.7836,192
8.7856,192
8.7876,201
8.7896,205
8.7916,203
8.7936,195
8.7945,197
8.7976,197
8.7996,193
8.8016,191
8.8036,198
8.8056,204
8.8076,204
8.8076,196
8.8076,196
8.8076,197
8.8156,194
8.8176,191
8.8176,195
8.8196,203
8.8196,205
8.8196,199
8.8196,195
8.8295,198
8.8315,196
8.8315,193
8.8315,193
8.8315,202
8.8315,206
8.8315,203
8.8315,195
8.8454,198
8.8474,197
8.8496,194
8.8516,191
8.8536,199
8.8556,205
8.8576,205
8.8596,196
8.8596,197
8.8633,197
8.8656,195
8.8676,191
8.8696,196
8.8716,203
8.8716,206
8.8716,200
8.8716,196
8.8793,197
8.8793,196
8.8793,192
8.8793,193
8.8793,201
8.8793,205
8.8793,203
8.8793,195
8.8953,198
8.8971,197
8.8971,194
8.8971,191
8.8971,199
8.8971,204
8.9079,204
8.9079,196
8.9114,197
8.9114,197
8.9156,194
8.9156,191
8.9156,196
8.9156,203
8.9156,205
8.9156,200
8.9274,196
8.9274,198
8.9274,196
8.9274,192
8.9274,193
8.9274,201
8.9274,205
8.9274,202
8.9436,195
8.9436,197
8.9456,197
8.9456,194
8.9456,191
8.9456,199
8.9456,204
8.9456,204
8.9596,196
8.9596,197
8.9596,197
8.9596,195
8.9596,191
8.9596,196
8.9596,203
8.9596,205
8.9756,199
8.9771,195
8.9771,198
8.9816,196
8.9836,192
8.9856,193
8.9876,201
8.9896,205
8.9914,202
8.9914,195
8.9954,197
8.9954,197
8.9954,193
8.9954,191
8.9954,199
8.9954,204
9.0081,204
9.0092,196
9.0123,197
9.0123,197
9.0156,195
9.0176,191
9.0196,196
9.0216,203
9.0216,206
9.0256,199
9.0272,195
9.0287,197
9.0316,196
9.0316,192
9.0316,193
9.0316,201
9.0316,205
9.0415,202
9.0436,195
9.0436,197
9.0476,196
9.0496,193
9.0496,191
9.0496,199
9.0496,204
9.0575,204
9.0596,196
9.0596,197
9.0596,197
9.0596,195
9.0596,191
9.0596,197
9.0596,203
9.0735,205
9.0735,199
9.0735,196
9.0735,198
9.0735,196
9.0735,192
9.0735,193
9.0735,202
9.0895,205
9.0895,202
9.0895,195
9.0895,197
9.0895,197
9.0895,194
9.0895,191
9.0895,199
9.1056,205
9.1078,204
9.1094,196
9.1112,197
9.113,197
9.113,195
9.113,191
9.113,197
9.1215,204
9.1215,205
9.1215,199
9.1215,196
9.1215,197
9.1215,196
9.1215,192
9.1215,193
9.1376,202
9.1396,206
9.1416,202
9.1436,195
9.1454,197
9.1476,197
9.1496,193
9.1516,191
9.1536,199
9.1556,205
9.1576,204
9.1596,196
9.1596,197
9.1596,197
9.1596,194
9.1596,191
9.1696,197
9.1696,204
9.1696,205
9.1696,199
9.1771,196
9.1771,197
9.1816,195
9.1836,192
9.1856,193
9.1876,202
9.1896,206
9.1916,202
9.1936,194
9.1954,197
9.1971,196
9.1971,193
9.2015,191
9.2036,199
9.2036,205
9.2036,204
9.2089,196
9.2089,197
9.2089,197
9.2089,194
9.2173,191
9.2173,197
9.2173,204
9.2173,205
9.2173,198
9.2173,196
9.2173,197
9.2173,195
9.2335,192
9.2356,193
9.2356,202
9.2356,206
9.2356,202
9.2356,194
9.2356,197
9.2356,196
9.2496,193
9.2514,191
9.2538,200
9.2556,205
9.2576,204
9.2592,196
9.2592,197
9.2592,197
9.2655,194
9.2655,191
9.2655,197
9.2655,204
9.2655,205
9.2655,198
9.2655,196
9.2655,197
9.2655,195
9.2817,192
9.2817,194
9.2876,202
9.2896,206
9.2896,201
9.2896,194
9.2896,197
9.2976,196
9.2976,193
9.2997,191
9.3038,200
9.3058,205
9.3076,204
9.3097,195
9.3112,197
9.3112,197
9.3156,194
9.3176,191
9.3196,197
9.3216,204
9.3236,206
9.3256,198
9.3272,196
9.3272,197
9.3299,195
9.3299,192
9.3299,194
9.3299,202
9.3299,206
9.3299,201
9.3299,194
9.3299,197
9.3462,196
9.3462,193
9.3462,191
9.3462,200
9.3462,205
9.3462,204
9.3462,196
9.3462,197
9.362,197
9.3656,194
9.3676,190
9.3696,198
9.3716,204
9.3716,206
9.3716,198
9.3716,196
9.3778,197
9.3816,195
9.3836,191
9.3856,194
9.3876,203
9.3876,206
9.3876,201
9.3938,194
9.3958,197
9.3958,196
9.3958,193
9.3958,191
9.3958,200
9.3958,206
9.3958,204
9.4096,195
9.4096,197
9.413,196
9.4156,194
9.4176,190
9.4196,198
9.4196,205
9.4196,206
9.4256,198
9.4272,195
9.4272,197
9.4272,195
9.4272,192
9.4272,194
9.4272,203
9.4272,206
9.4415,201
9.4436,194
9.4456,197
9.4456,196
9.4456,193
9.4456,191
9.4456,201
9.4456,206
9.4576,204
9.4596,195
9.4596,197
9.4596,197
9.4596,194
9.4596,191
9.4596,198
9.4596,205
9.4736,206
9.4736,198
9.4736,195
9.4736,197
9.4736,195
9.4736,191
9.4736,195
9.4736,203
9.4896,207
9.4914,201
9.4936,194
9.4946,197
9.4946,196
9.4946,193
9.4946,191
9.4946,201
9.5056,206
9.5071,204
9.5088,195
9.51,196
9.51,196
9.51,194
9.51,190
9.51,199
9.5218,205
9.5218,206
9.5218,197
9.5218,195
9.5218,196
9.5296,195
9.5296,191
9.5296,195
9.5377,203
9.5377,206
9.5403,200
9.5436,193
9.5454,196
9.5476,195
9.5496,192
9.5516,191
9.5536,202
9.5556,206
9.5572,204
9.5596,194
9.5618,196
9.5618,196
9.5618,194
9.5618,191
9.5618,200
9.5618,207
9.5618,207
9.5618,197
9.5778,195
9.5778,196
9.5778,195
9.5778,191
9.5778,195
9.5778,204
9.5778,208
9.5778,201
9.5939,193
9.5939,196
9.5966,195
9.5994,193
9.6013,192
9.6032,202
9.6051,207
9.607,204
9.6089,194
9.6102,196
9.613,196
9.613,193
9.613,190
9.613,199
9.613,206
9.613,206
9.613,197
9.6261,195
9.6281,196
9.6311,194
9.6333,191
9.6351,195
9.6351,205
9.6351,208
9.6418,200
9.6431,193
9.6447,196
9.6447,195
9.6447,192
9.6447,192
9.6447,203
9.6447,207
9.6576,204
9.6576,194
9.6576,196
9.6576,195
9.6576,193
9.6576,190
9.6576,200
9.6576,207
9.6737,206
9.6751,196
9.6771,195
9.6771,196
9.6771,194
9.6771,191
9.6771,196
9.6771,205
9.6897,208
9.6897,200
9.6931,193
9.6947,196
9.6971,195
9.6991,192
9.7011,192
9.7031,203
9.7051,207
9.7071,204
9.7091,194
9.7104,196
9.7128,195
9.7128,193
9.7128,190
9.7128,200
9.7212,207
9.722,206
9.722,196
9.722,195
9.722,196
9.722,194
9.722,191
9.722,196
9.7374,205
9.7391,208
9.7391,200
9.7391,193
9.7454,196
9.7454,195
9.7454,192
9.7454,192
9.7531,203
9.7556,207
9.7576,203
9.7596,193
9.7596,195
9.7596,195
9.7596,193
9.7596,190
9.769,200
9.7716,207
9.7736,206
9.7756,196
9.7772,195
9.7772,196
9.7816,194
9.7816,191
9.7851,196
9.7876,205
9.7896,207
9.7896,200
9.7896,193
9.7954,196
9.7954,195
9.7954,192
9.801,192
9.801,203
9.801,207
9.801,203
9.801,194
9.8105,196
9.8105,196
9.8105,193
9.817,191
9.817,200
9.817,207
9.817,206
9.817,196
9.817,195
9.817,196
9.817,194
9.8333,191
9.8333,197
9.8333,205
9.8333,207
9.8333,200
9.8333,194
9.8333,196
9.8333,195
9.8491,193
9.8516,193
9.8536,203
9.8556,207
9.8576,204
9.8596,194
9.8596,196
9.8596,196
9.8651,194
9.8678,191
9.8698,200
9.8716,207
9.8716,206
9.8716,196
9.8716,195
9.8795,196
9.8811,194
9.8811,191
9.8811,197
9.8811,205
9.8811,207
9.8811,200
9.8811,194
9.8811,196
9.8974,195
9.8996,192
9.9016,193
9.9036,203
9.9056,207
9.9076,203
9.9096,193
9.9117,196
9.913,196
9.9156,193
9.9176,191
9.9196,200
9.9216,207
9.9216,206
9.9216,196
9.9216,195
9.929,196
9.931,194
9.931,191
9.931,197
9.931,205
9.931,207
9.931,199
9.931,194
9.9451,196
9.9471,195
9.9471,192
9.9471,193
9.9471,203
9.9471,207
9.9471,203
9.9471,193
9.961,196
9.961,195
9.961,193
9.961,191
9.961,200
9.961,207
9.961,206
9.961,195
9.977,195
9.979,196
9.9816,194
9.9836,191
9.9856,197
9.9876,205
9.9876,207
9.9876,199
9.993,194
9.993,196
9.993,195
9.993,192
9.993,193
9.993,203
9.993,207
9.993,203
10.009,193
10.0117,196
10.0117,196
10.0156,193
10.0176,191
10.0176,200
10.0176,207
10.0176,205
10.0251,195
10.0272,195
10.0272,196
10.0316,194
10.0336,191
10.0356,197
10.0376,205
10.0396,207
10.0413,199
10.0413,194
10.0454,196
10.0478,195
10.0498,192
10.0516,193
10.0516,203
10.0516,207
10.0576,203
10.0593,193
10.0593,196
10.0629,196
10.0656,193
10.0676,191
10.0696,200
10.0716,206
10.0736,205
10.0756,195
10.0772,195
10.0786,196
10.0819,194
10.0839,191
10.0839,197
10.0839,205
10.0897,207
10.0897,199
10.0897,194
10.0897,196
10.0897,195
10.0897,192
10.0897,193
10.0897,203
10.1056,207
10.1056,203
10.1096,193
10.1117,196
10.1117,196
10.1156,193
10.1176,191
10.1196,201
10.1217,206
10.1217,205
10.1217,195
10.1217,195
10.1294,196
10.1294,194
10.1294,191
10.1294,197
10.1376,205
10.1393,207
10.1416,199
10.1433,194
10.1433,196
10.1433,195
10.1433,192
10.1433,193
10.1534,203
10.1556,207
10.1574,202
10.1592,193
10.1612,196
10.1628,195
10.1649,193
10.166,191
10.1696,200
10.1696,206
10.1696,205
10.1696,195
10.1696,195
10.1792,196
10.1792,194
10.1792,191
10.1792,197
10.1858,205
10.1858,207
10.1858,199
10.1858,194
10.1858,196
10.1858,195
10.1858,192
10.2017,193
10.2032,203
10.2032,207
10.2032,202
10.2032,193
10.2032,196
10.212,196
10.212,193
10.212,191
10.2191,201
10.2211,206
10.2231,205
10.2251,195
10.2271,195
10.2271,196
10.2271,194
10.2337,191
10.2351,197
10.2371,205
10.2391,207
10.2411,199
10.2431,194
10.2431,196
10.2461,195
10.2496,192
10.2511,194
10.2511,203
10.2511,207
10.2511,202
10.2511,193
10.2511,196
10.2511,196
10.2653,193
10.2653,191
10.2653,201
10.2653,206
10.2653,205
10.2653,194
10.2653,195
10.2653,196
10.2812,193
10.2812,190
10.2812,197
10.2812,205
10.2812,206
10.2812,197
10.2812,193
10.2812,196
10.2972,194
10.2993,191
10.3013,193
10.3013,203
10.3013,207
10.3013,202
10.3013,194
10.3013,197
10.3133,196
10.3145,194
10.3145,192
10.3145,201
10.3145,207
10.3145,205
10.3145,195
10.3145,195
10.329,196
10.329,194
10.329,191
10.329,198
10.329,206
10.329,207
10.329,198
10.329,194
10.3451,196
10.3471,195
10.3496,192
10.3516,194
10.3536,204
10.3556,207
10.3576,202
10.3596,193
10.3612,196
10.3612,196
10.3612,193
10.3612,191
10.3612,201
10.3612,207
10.3612,205
10.3612,194
10.3774,195
10.3794,196
10.3816,194
10.3836,191
10.3856,198
10.3876,206
10.3896,207
10.3916,198
10.3936,194
10.3954,196
10.3978,195
10.3978,192
10.3978,194
10.3978,203
10.3978,207
10.3978,202
10.4095,193
10.4095,196
10.4126,196
10.4126,193
10.4126,191
10.4126,201
10.4126,206
10.4126,204
10.4257,194
10.4257,195
10.4295,196
10.4316,194
10.4331,191
10.4331,198
10.4331,205
10.4331,206
10.4417,198
10.4436,194
10.4436,196
10.4436,195
10.4436,192
10.4436,194
10.4436,204
10.4436,207
10.4577,201
10.4594,193
10.4594,196
10.4594,195
10.4594,193
10.4594,191
10.4594,201
10.4594,206
10.4737,204
10.4752,194
10.4772,195
10.4772,196
10.4816,194
10.4836,191
10.4856,198
10.4876,205
10.4896,206
10.4916,198
10.4936,194
10.4954,196
10.4976,195
10.4996,191
10.5016,194
10.5036,204
10.5056,207
10.5076,201
10.5096,193
10.5112,196
10.513,195
10.513,193
10.513,191
10.513,201
10.5215,206
10.5215,204
10.5215,194
10.5215,196
10.5291,196
10.5309,194
10.5326,191
10.536,198
10.5377,205
10.5377,206
10.5377,197
10.5377,194
10.5454,196
10.5454,195
10.5454,192
10.5454,195
10.5536,204
10.5536,207
10.556,201
10.556,193
10.556,196
10.5627,196
10.5627,193
10.5627,192
10.5692,202
10.5692,207
10.5692,204
10.5692,194
10.5692,196
10.5794,196
10.5794,194
10.5794,191
10.5851,199
10.5873,206
10.5873,207
10.5873,197
10.5873,195
10.5873,196
10.5962,195
10.5962,192
10.6006,195
10.6006,204
10.6046,207
10.6046,201
10.6046,193
10.6046,196
10.613,196
10.6141,193
10.6161,192
10.6161,202
10.6161,207
10.6161,204
10.6161,194
10.6161,196
10.6289,196
10.6289,194
10.6331,191
10.6351,199
10.6371,206
10.6391,206
10.6411,197
10.6431,194
10.6447,196
10.6471,195
10.6471,192
10.6471,195
10.6471,204
10.6471,207
10.6471,201
10.6471,193
10.6605,196
10.6605,195
10.6605,193
10.6605,192
10.6605,202
10.6605,207
10.6605,204
10.6605,194
10.6765,195
10.6784,196
10.6784,194
10.6784,191
10.6784,199
10.6784,206
10.6784,206
10.6784,197
10.6925,194
10.6925,196
10.6961,195
10.6982,191
10.6982,195
10.6982,204
10.6982,207
10.7061,201
10.7092,193
10.7092,196
10.7132,195
10.7152,192
10.7152,191
10.7152,202
10.7152,207
10.7152,204
10.7247,194
10.7271,196
10.7294,196
10.7311,194
10.7331,191
10.7351,199
10.7371,206
10.7391,206
10.7411,197
10.7431,195
10.7446,196
10.7471,195
10.7471,191
10.7471,195
10.7471,204
10.7471,207
10.7572,201
10.7572,193
10.7572,196
10.7572,195
10.7572,192
10.7572,192
10.7572,202
10.7572,207
10.7732,204
10.7732,194
10.7732,196
10.7732,196
10.7732,194
10.7732,191
10.7732,199
10.7732,206
10.7891,206
10.7911,197
10.7931,195
10.7946,196
10.7946,195
10.7946,191
10.7946,196
10.7946,204
10.8052,207
10.8052,200
10.8052,193
10.8052,196
10.8136,195
10.8136,192
10.8136,192
10.8136,202
10.8216,207
10.8231,204
10.8249,194
10.8249,196
10.8296,196
10.8296,194
10.8296,191
10.8296,199
10.8373,206
10.8373,206
10.8373,197
10.8436,195
10.8436,196
10.8465,195
10.8485,191
10.8505,196
10.8525,205
10.8556,207
10.8576,200
10.8596,193
10.8596,196
10.8596,195
10.8596,193
10.8596,192
10.869,202
10.8716,207
10.8716,204
10.8716,194
10.8716,196
10.8716,196
10.8716,194
10.8841,191
10.8841,199
10.8878,206
10.8896,206
10.8912,196
10.8936,195
10.8946,196
10.8946,194
10.9001,191
10.9001,196
10.9001,205
10.9001,207
10.9001,200
10.9001,193
10.9001,196
10.9001,195
10.914,192
10.916,192
10.918,202
10.92,207
10.9234,203
10.9254,194
10.9274,196
10.9274,196
10.9296,193
10.9318,190
10.9318,199
10.9318,206
10.9318,206
10.9318,196
10.9318,195
10.9318,196
10.9478,195
10.9491,191
10.9516,196
10.9516,205
10.9516,207
10.9516,200
10.9516,193
10.9516,196
10.9516,195
10.9638,192
10.9638,192
10.9638,203
10.9638,207
10.9638,203
10.9638,194
10.9638,196
10.9638,196
10.9816,193
10.9836,191
10.9856,200
10.9876,206
10.9876,206
10.9876,196
10.9876,195
10.9954,196
10.9976,194
10.9976,191
10.9976,196
10.9976,205
10.9976,207
10.9976,200
10.9976,193
11.0114,196
11.0131,195
11.0161,192
11.0176,192
11.0196,202
11.0196,207
11.0196,203
11.0196,193
11.0274,195
11.0274,195
11.0316,193
11.0336,190
11.0356,199
11.0376,206
11.0396,205
11.0416,195
11.0441,194
11.0441,196
11.0441,194
11.0441,191
11.0441,197
11.0441,205
11.0441,208
11.0441,201
11.0595,194
11.0595,197
11.0595,196
11.0595,193
11.0595,193
11.0595,203
11.0595,207
11.0595,203
11.0756,194
11.0765,196
11.0777,196
11.0777,193
11.0777,191
11.0777,200
11.0777,207
11.0777,206
11.0916,196
11.0916,195
11.0916,196
11.0916,194
11.0916,191
11.0916,197
11.0916,205
11.0916,207
11.1076,199
11.1096,193
11.1112,196
11.1112,195
11.1158,192
11.1158,193
11.1158,203
11.1158,207
11.1235,203
11.1247,193
11.1272,196
11.129,196
11.1316,193
11.1336,191
11.1356,200
11.1376,206
11.139,206
11.1416,195
11.1436,195
11.1451,196
11.147,194
11.147,191
11.147,197
11.147,205
11.147,207
11.1575,199
11.1575,194
11.1575,196
11.1575,195
11.1575,192
11.1575,193
11.1575,203
11.1575,207
11.1736,203
11.1746,193
11.1766,196
11.1786,196
11.1786,193
11.1786,191
11.1786,200
11.1786,206
11.1894,205
11.1894,195
11.1894,195
11.1894,196
11.1894,194
11.1894,191
11.1894,197
11.1894,205
11.2051,207
11.207,199
11.2091,194
11.2108,196
11.213,195
11.2142,192
11.2174,193
11.219,203
11.2207,207
11.2225,203
11.2253,193
11.2275,196
11.2275,195
11.2275,193
11.2275,191
11.2275,200
11.2364,206
11.2364,205
11.2364,195
11.2364,195
11.2364,196
11.2364,194
11.2364,191
11.2364,197
11.2531,205
11.2546,207
11.2566,199
11.2579,194
11.2579,196
11.2579,195
11.2579,192
11.2579,193
11.269,203
11.269,207
11.269,202
11.269,193
11.269,196
11.2794,195
11.2794,193
11.2794,191
11.2841,200
11.2871,206
11.2891,205
11.2911,195
11.2931,195
11.2947,196
11.2964,194
11.2964,191
11.2999,197
11.2999,205
11.2999,207
11.2999,199
11.2999,194
11.2999,196
11.2999,195
11.2999,192
11.3164,193
11.3164,203
11.3164,207
11.3164,203
11.3164,193
11.3164,196
11.3164,196
11.3164,193
11.332,191
11.332,201
11.332,207
11.332,205
11.332,195
11.332,195
11.332,196
11.332,194
11.3491,191
11.3511,198
11.3531,205
11.3551,207
11.3571,199
11.3571,194
11.3571,196
11.3571,195
11.365,192
11.3671,194
11.3671,203
11.3671,207
11.3671,202
11.3671,193
11.3671,196
11.3671,196
11.3811,193
11.3811,191
11.3811,201
11.3811,206
11.3811,205
11.3811,195
11.3811,195
11.3956,196
11.3956,194
11.3956,191
11.3956,198
11.3956,205
11.3956,207
11.3956,198
11.3956,194
11.4114,196
11.4114,195
11.4151,192
11.4177,194
11.4192,203
11.4211,207
11.4231,202
11.4251,193
11.4292,196
11.4292,195
11.4292,193
11.4292,191
11.4292,201
11.4292,206
11.4292,205
11.4292,195
11.4432,195
11.4454,196
11.4471,194
11.4489,191
11.4506,198
11.4523,205
11.4555,207
11.4555,198
11.459,194
11.459,196
11.4628,195
11.4648,192
11.4668,194
11.4688,204
11.4708,207
11.4729,202
11.4749,193
11.4749,196
11.4749,196
11.4749,193
11.4749,191
11.4844,201
11.4864,207
11.4885,205
11.4905,195
11.4925,195
11.4944,196
11.4944,194
11.4944,191
11.4944,198
11.5022,206
11.5042,207
11.5063,198
11.5083,194
11.5101,196
11.5123,195
11.5123,192
11.5164,194
11.5175,203
11.5175,207
11.5221,202
11.5241,193
11.527,196
11.5276,195
11.5276,193
11.5327,191
11.5347,201
11.5367,207
11.5382,205
11.5403,194
11.5423,195
11.5444,196
11.5464,194
11.5484,191
11.5504,198
11.5524,206
11.5542,207
11.5562,198
11.5562,194
11.5562,196
11.5562,195
11.5562,192
11.5562,194
11.5562,204
11.5699,207
11.5729,202
11.5729,193
11.5729,196
11.5729,196
11.5729,193
11.5729,191
11.5729,201
11.5857,206
11.5857,204
11.5857,194
11.5857,195
11.5857,196
11.5857,194
11.5857,191
11.5857,198
11.6018,206
11.6018,207
11.6018,198
11.6018,194
11.611,196
11.613,195
11.615,192
11.615,194
11.6188,204
11.6188,207
11.6188,201
11.6238,193
11.6271,196
11.6291,195
11.6291,193
11.6326,191
11.6337,201
11.6337,207
11.6337,204
11.6413,194
11.6413,195
11.6413,196
11.6413,194
11.6413,191
11.6508,198
11.6537,206
11.6537,207
11.6537,198
11.6537,194
11.6537,196
11.6628,195
11.6628,192
11.6667,194
11.6678,204
11.671,207
11.6721,201
11.6721,193
11.6721,196
11.6783,196
11.6813,193
11.6825,192
11.6825,202
11.6871,207
11.6879,204
11.6879,194
11.6879,195
11.6941,196
11.6941,194
11.6941,191
11.6941,199
11.7029,206
11.7029,207
11.7066,198
11.7078,194
11.7078,196
11.7121,195
11.7121,191
11.7121,194
11.719,204
11.72,207
11.72,201
11.72,193
11.72,196
11.72,195
11.72,193
11.72,192
11.7348,201
11.7348,207
11.7348,204
11.7348,194
11.7348,195
11.745,196
11.7458,194
11.7478,190
11.7508,198
11.7508,206
11.7542,206
11.7566,197
11.7566,194
11.76,196
11.76,194
11.7645,191
11.7667,194
11.7682,204
11.7682,207
11.7714,200
11.7752,193
11.7752,196
11.7778,196
11.7804,193
11.783,193
11.783,203
11.7869,207
11.7869,205
11.7869,195
11.7869,196
11.7869,196
11.7869,194
11.7991,191
11.7991,199
11.7991,206
11.8051,206
11.8072,197
11.8072,195
11.8072,196
11.8129,195
11.815,192
11.8168,195
11.8182,204
11.8182,207
11.8182,201
11.8238,193
11.8238,196
11.8278,195
11.8312,193
11.8329,192
11.8348,202
11.8369,207
11.8369,204
11.8369,194
11.8369,196
11.8369,196
11.8463,194
11.8491,191
11.8503,199
11.8503,206
11.8503,206
11.8503,197
11.8503,194
11.8503,196
11.8623,195
11.8648,191
11.8668,195
11.8668,204
11.8668,207
11.8668,201
11.8668,193
11.8668,196
11.8783,195
11.8783,193
11.8816,192
11.8816,202
11.8816,207
11.8816,204
11.8816,194
11.8816,196
11.8942,196
11.8942,194
11.8942,191
11.8942,199
11.8942,206
11.8942,206
11.8942,197
11.8942,195
11.9105,196
11.9105,195
11.9141,191
11.9141,196
11.9181,204
11.9181,207
11.9181,201
11.9181,193
11.9262,196
11.9262,195
11.9307,193
11.9307,192
11.9307,202
11.9307,207
11.9307,204
11.9399,194
11.9423,196
11.9437,196
11.9469,193
11.9488,191
11.951,199
11.9525,206
11.9525,206
11.9525,197
11.9589,195
11.9589,196
11.9589,195
11.9589,191
11.9589,195
11.9589,204
11.9589,207
11.9589,200
11.9738,193
11.9738,196
11.9738,195
11.9738,192
11.9738,192
11.9738,202
11.9738,206
11.9738,203
11.9909,194
11.9929,195
11.9945,196
11.997,193
11.997,190
11.997,199
11.997,206
12.0052,206
12.0052,196
12.0052,195
12.0052,196
12.0052,195
12.0052,191
12.0052,196
12.0186,204
12.021,207
12.023,200
12.023,193
12.023,196
12.0288,196
12.0288,193
12.0288,192
12.0288,202
12.0371,207
12.039,204
12.041,194
12.041,196
12.041,196
12.041,194
12.041,191
12.041,199
12.0536,206
12.0541,206
12.0541,197
12.0541,195
12.0541,196
12.0541,195
12.0541,191
12.0541,196
12.0691,205
12.0716,208
12.0736,200
12.0756,193
12.0771,196
12.079,195
12.0816,193
12.0836,192
12.0856,203
12.0876,207
12.0896,203
12.0916,194
12.0936,196
12.0954,196
12.0976,194
12.0996,191
12.1016,200
12.1036,206
12.1056,206
12.1076,196
12.1076,195
12.1076,196
12.1076,195
12.1076,191
12.1178,196
12.1195,205
12.1216,207
12.1236,200
12.1256,193
12.1273,196
12.1273,195
12.1273,192
12.1337,192
12.1337,202
12.1337,207
12.1337,203
12.1337,194
12.1337,196
12.1454,196
12.1454,194
12.1496,191
12.1518,200
12.1538,206
12.1558,206
12.1578,196
12.1578,195
12.1578,197
12.1578,195
12.1654,191
12.1654,196
12.1654,205
12.1654,207
12.1654,200
12.1654,193
12.1654,196
12.1654,195
12.1816,192
12.1832,192
12.1832,203
12.1832,207
12.1832,203
12.1832,194
12.1832,196
12.1959,196
12.1959,194
12.1996,191
12.2016,200
12.2036,206
12.2056,206
12.2076,196
12.2096,195
12.2119,196
12.2127,195
12.2156,191
12.2176,197
12.2196,205
12.2202,207
12.2236,200
12.2256,194
12.2272,196
12.2272,195
12.2316,192
12.2316,193
12.2316,203
12.2316,207
12.2316,203
12.2316,193
12.243,196
12.2445,196
12.2445,193
12.2445,191
12.2445,200
12.2445,206
12.2445,205
12.2445,196
12.259,195
12.2612,196
12.2612,194
12.2612,191
12.2612,197
12.2612,205
12.2612,207
12.2612,200
12.2751,194
12.2772,196
12.2793,195
12.2813,192
12.2833,193
12.2853,203
12.2873,207
12.2893,203
12.2911,193
12.2931,196
12.2951,196
12.2971,193
12.2991,191
12.3011,200
12.3011,206
12.3011,205
12.3072,195
12.3072,195
12.3072,196
12.3072,195
12.3072,191
12.3072,197
12.3072,205
12.3202,207
12.3232,199
12.3252,193
12.3262,196
12.3295,195
12.3295,192
12.3295,193
12.3295,203
12.3295,207
12.3391,203
12.3391,193
12.3391,196
12.3391,196
12.3391,193
12.3391,191
12.3391,200
12.3391,206
12.3552,205
12.357,195
12.357,195
12.357,196
12.357,194
12.357,191
12.357,197
12.357,205
12.3713,207
12.3736,199
12.3756,194
12.3773,196
12.3773,195
12.3816,192
12.3836,193
12.3856,203
12.3876,207
12.3896,203
12.3896,193
12.3896,196
12.3896,196
12.3896,193
12.3896,191
12.3896,200
12.4035,206
12.4035,205
12.4035,195
12.4091,195
12.4111,196
12.4111,194
12.4111,191
12.4111,197
12.4195,205
12.4216,207
12.4216,199
12.4216,194
12.4216,196
12.4216,195
12.4216,192
12.4216,193
12.4355,203
12.4355,207
12.4355,203
12.4355,193
12.4355,196
12.4355,196
12.4355,193
12.4355,191
12.4515,200
12.4515,206
12.4535,205
12.4576,195
12.4576,195
12.4576,196
12.4576,194
12.4576,191
12.4675,197
12.4675,205
12.4716,207
12.4716,199
12.4716,194
12.4716,196
12.4716,195
12.4716,191
12.4836,193
12.4856,203
12.4856,206
12.4856,202
12.4856,192
12.4856,195
12.4954,195
12.4954,193
12.4997,190
12.4997,200
12.5036,206
12.5056,205
12.5076,195
12.5096,196
12.5112,197
12.513,195
12.5156,192
12.5174,198
12.5174,206
12.5218,207
12.5236,199
12.5256,194
12.5272,196
12.5272,195
12.5316,192
12.5316,194
12.5316,203
12.5316,207
12.5316,202
12.5316,193
12.5316,196
12.5316,196
12.5477,193
12.5496,191
12.5496,201
12.5496,207
12.5496,205
12.5496,195
12.5496,195
12.5496,196
12.5496,194
12.5652,191
12.5652,198
12.5652,205
12.5652,207
12.5652,199
12.5652,194
12.5652,196
12.5652,195
12.5811,192
12.5823,193
12.5856,203
12.5874,207
12.5891,202
12.5909,193
12.5909,196
12.5909,196
12.5971,193
12.5994,191
12.5994,201
12.5994,206
12.5994,205
12.5994,194
12.5994,195
12.6119,196
12.6119,194
12.6151,191
12.6151,198
12.6151,205
12.6151,206
12.6222,198
12.6222,194
12.6222,196
12.628,195
12.628,191
12.628,194
12.628,204
12.628,207
12.628,202
12.628,193
12.628,196
12.6444,196
12.6471,193
12.6491,191
12.6511,201
12.6531,206
12.6531,205
12.6531,194
12.6597,195
12.6597,196
12.6597,194
12.6597,191
12.6597,198
12.6597,205
12.6597,207
12.6597,198
12.6757,194
12.6771,196
12.6794,195
12.6794,192
12.6794,194
12.6794,204
12.6794,207
12.6794,202
12.6794,193
12.6918,196
12.6918,195
12.6918,193
12.6918,191
12.6918,201
12.6918,206
12.6918,204
12.7081,194
12.7096,195
12.7121,196
12.7131,194
12.7155,191
12.7176,198
12.7196,205
12.7216,206
12.7241,198
12.7252,194
12.7272,196
12.7289,195
12.7316,191
12.7316,194
12.7316,204
12.7316,207
12.7396,201
12.7416,193
12.7436,196
12.7436,195
12.7476,193
12.7496,191
12.7516,201
12.7536,207
12.7556,205
12.7576,195
12.7596,196
12.7596,196
12.7596,194
12.7596,191
12.7596,199
12.7596,206
12.7716,207
12.7732,198
12.7732,195
12.7732,196
12.7732,195
12.7732,192
12.7732,195
12.7732,204
12.7876,207
12.7896,202
12.7916,193
12.7936,196
12.7945,196
12.7945,193
12.7945,192
12.7945,201
12.8037,207
12.8037,205
12.8037,194
12.8037,196
12.8037,196
12.8037,194
12.8037,191
12.8037,198
12.8197,206
12.8197,207
12.8238,198
12.8238,194
12.8238,196
12.8238,195
12.8238,192
12.8238,195
12.8356,204
12.8371,207
12.8371,201
12.8371,193
12.8371,196
12.8454,196
12.8454,193
12.8454,192
12.8517,201
12.8517,207
12.8538,204
12.8576,194
12.8596,196
12.8596,196
12.8596,194
12.8596,191
12.8677,199
12.8691,206
12.8691,206
12.8691,197
12.8691,194
12.8691,196
12.8691,195
12.8691,192
12.8837,195
12.8852,204
12.8876,207
12.8896,201
12.8916,193
12.8936,196
12.8954,195
12.8954,193
12.8996,191
12.9011,202
12.9011,207
12.9011,204
12.9011,194
12.9011,195
12.9011,196
12.9011,194
12.9157,191
12.9157,199
12.9157,206
12.9157,206
12.9239,197
12.9252,195
12.9272,196
12.9272,195
12.9316,192
12.9316,195
12.9316,204
12.9316,207
12.9316,201
12.9316,193
12.9316,196
12.9316,195
12.9477,193
12.9477,192
12.9477,202
12.9477,207
12.9477,204
12.9477,194
12.9477,195
12.9477,196
12.9633,194
12.9633,191
12.9633,199
12.9633,206
12.9633,206
12.9633,197
12.9633,195
12.9633,196
12.9793,195
12.9816,192
12.9836,195
12.9856,204
12.9876,207
12.9896,201
12.9916,193
12.9936,196
12.9954,195
12.9976,193
12.9996,192
13.0016,202
13.0036,207
13.0056,204
13.0076,194
13.0096,195
13.0111,196
13.0131,194
13.0156,191
13.0176,199
13.0196,206
13.0196,207
13.0196,197
13.0245,195
13.0274,196
13.029,195
13.029,191
13.029,195
13.029,204
13.029,207
13.029,200
13.029,193
13.0436,196
13.0436,195
13.0436,192
13.0436,192
13.0436,202
13.0436,207
13.0436,204
13.0436,194
13.0595,196
13.0595,196
13.0595,194
13.0595,191
13.0595,199
13.0595,206
13.0595,206
13.0595,197
13.0755,195
13.0755,196
13.0755,195
13.0755,191
13.0755,196
13.0755,204
13.0755,207
13.0755,200
13.0915,193
13.0936,196
13.0954,195
13.0976,193
13.0996,192
13.1016,202
13.1016,207
13.1016,204
13.1075,194
13.1096,196
13.1112,196
13.1131,194
13.1156,190
13.1176,199
13.1176,206
13.1176,206
13.1236,197
13.1246,195
13.1246,196
13.1246,195
13.1246,191
13.1246,196
13.1246,204
13.1246,207
13.1396,200
13.1411,193
13.1436,196
13.1436,195
13.1476,193
13.1476,192
13.1476,202
13.1476,207
13.1556,204
13.1571,194
13.1596,196
13.1596,196
13.1596,194
13.1596,191
13.1596,199
13.1596,206
13.1715,206
13.1715,196
13.1756,195
13.1756,196
13.1796,194
13.1816,191
13.1816,196
13.1836,205
13.1874,207
13.1894,200
13.1894,193
13.1894,196
13.1894,195
13.1894,193
13.1894,192
13.1894,203
13.2036,207
13.2036,204
13.2036,194
13.2036,196
13.2036,196
13.2036,194
13.2036,190
13.2036,199
13.2196,206
13.2216,206
13.2236,196
13.2261,195
13.2271,196
13.2271,194
13.2316,191
13.2316,196
13.2357,204
13.2372,207
13.239,199
13.2416,193
13.2436,195
13.2453,195
13.2476,192
13.2496,191
13.2516,202
13.2536,206
13.2556,203
13.2576,194
13.2596,196
13.2621,196
13.2627,194
13.2627,191
13.2627,200
13.2627,207
13.2627,206
13.2627,196
13.2627,195
13.2627,196
13.2781,195
13.2781,191
13.2781,196
13.2781,205
13.2781,207
13.2781,200
13.2781,193
13.2938,196
13.2938,195
13.2976,193
13.2996,192
13.3016,203
13.3036,207
13.3056,203
13.3076,194
13.3099,196
13.311,196
13.3131,194
13.3156,191
13.3176,200
13.3176,206
13.3176,206
13.3176,196
13.3258,195
13.3258,196
13.3258,195
13.3258,191
13.3258,196
13.3258,205
13.3258,207
13.3258,200
13.3418,194
13.3418,196
13.3418,195
13.3476,192
13.3496,193
13.3496,203
13.3496,207
13.3496,203
13.3578,193
13.3578,196
13.3619,196
13.3619,193
13.3639,191
13.3659,200
13.3679,206
13.3699,205
13.3719,196
13.3738,195
13.3776,196
13.3794,194
13.3816,191
13.3836,197
13.3856,205
13.3876,207
13.3896,199
13.3916,193
13.3936,196
13.3945,195
13.3976,192
13.3996,193
13.4016,203
13.4036,207
13.4056,203
13.4076,193
13.4096,196
13.4111,196
13.4131,193
13.4131,191
13.4181,200
13.4181,206
13.4217,205
13.4217,195
13.426,195
13.426,196
13.426,194
13.426,191
13.426,197
13.426,205
13.4376,207
13.4376,199
13.4416,194
13.4416,196
13.4416,195
13.4416,192
13.4416,193
13.4416,203
13.4536,207
13.4536,203
13.4536,193
13.4536,196
13.4536,196
13.4536,193
13.4536,191
13.4536,200
13.4695,206
13.4695,205
13.4736,195
13.4756,195
13.4772,196
13.4772,194
13.4816,191
13.4836,197
13.4856,205
13.4856,207
13.4856,199
13.4856,194
13.4856,196
13.4856,195
13.4856,192
13.4856,193
13.5015,203
13.5032,207
13.5056,203
13.5076,193
13.5096,196
13.5111,196
13.513,193
13.5156,191
13.5176,200
13.5196,206
13.5216,206
13.5236,195
13.5261,195
13.5273,197
13.5273,195
13.5273,191
13.5337,197
13.5337,205
13.5337,207
13.5337,199
13.5337,194
13.5337,196
13.5454,195
13.5476,192
13.5496,193
13.5516,203
13.5536,207
13.5556,203
13.5576,193
13.5596,196
13.5596,196
13.5596,193
13.5657,191
13.5671,200
13.5671,207
13.5671,205
13.5671,195
13.5671,195
13.5671,196
13.5671,195
13.5817,191
13.5817,197
13.5817,205
13.5817,207
13.5817,199
13.5817,194
13.5817,196
13.5817,195
13.5976,192
13.5992,193
13.5992,203
13.5992,207
13.5992,202
13.5992,193
13.5992,196
13.5992,196
13.6133,193
13.6133,191
13.6133,201
13.6133,206
13.6133,205
13.6133,195
13.6133,195
13.6264,196
13.6288,194
13.6316,191
13.6336,197
13.6356,205
13.6376,207
13.6376,199
13.6376,194
13.6376,196
13.6449,195
13.6476,192
13.6496,193
13.6516,203
13.6536,207
13.6556,202
13.6576,193
13.6596,196
13.6611,196
13.6611,193
13.6611,191
13.6611,201
13.6611,206
13.6611,205
13.6611,195
13.6611,195
13.677,196
13.677,194
13.6816,191
13.6836,197
13.6856,205
13.6876,207
13.6896,199
13.6916,194
13.6936,196
13.6954,195
13.6954,192
13.6954,194
13.6954,203
13.6954,207
13.7053,202
13.7073,193
13.7094,196
13.7114,196
13.7114,193
13.7114,191
13.7114,201
13.7114,206
13.7114,205
13.7114,195
13.7255,195
13.7272,196
13.7272,194
13.7316,191
13.7336,198
13.7356,205
13.7356,207
13.7356,199
13.7416,194
13.7432,196
13.7432,195
13.7432,192
13.7432,194
13.7432,203
13.7432,207
13.7432,202
13.7575,193
13.7575,196
13.7575,196
13.7575,193
13.7575,191
13.7575,201
13.7575,206
13.7575,205
13.7735,195
13.7748,195
13.7757,196
13.7785,194
13.7816,191
13.7836,198
13.7836,205
13.7876,207
13.7896,198
13.7916,194
13.7936,196
13.7936,195
13.797,192
13.7996,194
13.7996,204
13.7996,207
13.8057,202
13.8076,193
13.8076,196
13.8076,195
13.8076,193
13.8076,191
13.8076,201
13.8076,206
13.8216,205
13.8216,195
13.8216,195
13.827,196
13.827,194
13.827,191
13.827,198
13.827,206
13.8375,207
13.8375,198
13.8375,194
13.8375,196
13.8375,195
13.8375,192
13.8375,194
13.8375,204
13.8536,207
13.8556,202
13.8556,193
13.8556,196
13.8556,196
13.8556,193
13.8556,191
13.8556,201
13.8695,206
13.8716,205
13.8736,195
13.8736,195
13.8736,196
13.8736,194
13.8736,191
13.8736,198
13.8857,205
13.887,207
13.8896,198
13.8916,194
13.8936,196
13.8936,195
13.8936,192
13.8936,194
13.9016,204
13.9036,207
13.9036,202
13.9036,193
13.9036,196
13.9036,196
13.9036,193
13.9036,191
13.9175,201
13.9175,207
13.9175,205
13.9175,194
13.9175,195
13.9272,196
13.9272,194
13.9314,191
13.9331,198
13.9356,206
13.9356,207
13.9356,198
13.9356,194
13.9356,196
13.9356,195
13.9356,192
13.9492,194
13.9512,204
13.9512,207
13.9512,201
13.9512,193
13.9512,196
13.9512,196
13.9629,193
13.9651,191
13.9676,201
13.9696,206
13.9716,204
13.9736,194
13.9756,195
13.9771,196
13.9771,194
13.981,191
13.9836,198
13.9856,206
13.9876,206
13.9896,198
13.9916,194
13.9936,196
13.9936,194
13.9976,191
13.9996,194
14.0016,203
14.0036,206
14.0056,201
14.0076,192
14.0096,195
14.0116,195
14.013,192
14.0156,191
14.0176,201
14.0196,207
14.0216,205
14.0236,195
14.0236,196
14.0273,197
14.029,195
14.0316,191
14.0336,199
14.0356,206
14.0376,207
14.0396,197
14.0416,194
14.0436,196
14.0451,195
14.0476,192
14.0496,195
14.0516,204
14.0536,207
14.0556,201
14.0556,193
14.0556,196
14.0612,196
14.0612,193
14.0612,192
14.0612,202
14.0612,206
14.0612,204
14.0612,194
14.0612,195
14.0774,196
14.0774,194
14.0774,191
14.0774,198
14.0774,206
14.0774,206
14.0774,197
14.0774,194
14.0935,196
14.0943,195
14.0976,191
14.0996,195
14.1016,204
14.1036,207
14.1056,201
14.1076,193
14.1096,196
14.1111,195
14.1131,193
14.1156,192
14.1176,201
14.1196,206
14.1196,204
14.1196,194
14.1257,195
14.1278,196
14.1278,194
14.1278,191
14.1278,199
14.1278,206
14.1278,206
14.1278,197
14.1416,195
14.1416,196
14.1416,195
14.1416,191
14.1416,195
14.1416,204
14.1416,207
14.1416,201
14.1575,193
14.1588,196
14.1588,195
14.1588,193
14.1588,191
14.1588,202
14.1588,206
14.1588,204
14.1736,194
14.1758,195
14.1775,196
14.1775,194
14.1816,190
14.1836,199
14.1856,206
14.1876,206
14.1896,197
14.1916,194
14.1916,196
14.1954,195
14.1954,191
14.1954,195
14.1954,204
14.1954,207
14.1954,201
14.207,193
14.207,196
14.207,195
14.207,193
14.207,191
14.207,202
14.207,207
14.2218,204
14.2218,194
14.2218,195
14.2273,196
14.2273,194
14.2316,190
14.2316,199
14.2316,206
14.2378,206
14.2396,197
14.2416,195
14.2416,196
14.2416,194
14.2416,191
14.2416,195
14.2416,204
14.2538,207
14.2556,200
14.2576,193
14.2576,196
14.2576,195
14.2576,193
14.2576,192
14.2576,202
14.2698,207
14.2716,204
14.2736,194
14.2756,196
14.2771,196
14.279,194
14.2816,191
14.2836,199
14.2856,206
14.2876,206
14.2896,197
14.2896,195
14.2896,196
14.2954,195
14.2972,191
14.2991,196
14.2991,204
14.2991,207
14.2991,201
14.2991,193
14.2991,196
14.3122,196
14.3122,193
14.3122,192
14.3122,202
14.3122,207
14.3211,204
14.3236,194
14.3256,196
14.3276,196
14.3286,194
14.3286,191
14.3286,199
14.3362,206
14.3375,206
14.3396,196
14.3396,195
14.3396,196
14.3396,195
14.3396,191
14.3396,196
14.352,204
14.352,207
14.3544,200
14.3569,193
14.3596,196
14.3596,195
14.3629,193
14.3629,192
14.3678,202
14.3678,207
14.3678,203
14.3678,194
14.3678,196
14.3678,196
14.3678,194
14.3678,191
14.3838,199
14.385,206
14.3876,206
14.3896,196
14.3916,195
14.3936,196
14.3936,195
14.3976,191
14.3996,196
14.4016,204
14.4036,207
14.4056,200
14.4056,193
14.4056,196
14.4056,195
14.4056,193
14.4157,192
14.4171,202
14.4196,207
14.4196,203
14.4196,194
14.4196,196
14.4278,196
14.4278,194
14.4317,191
14.4317,200
14.4317,206
14.4317,206
14.4317,196
14.4317,195
14.4317,196
14.4317,195
14.4477,191
14.4477,196
14.4477,204
14.4477,207
14.4477,200
14.4477,193
14.4477,196
14.4477,195
14.4477,192
14.4637,192
14.4657,202
14.4677,207
14.4697,203
14.4718,194
14.4738,196
14.4758,196
14.4758,194
14.4795,191
14.4836,200
14.4856,206
14.4876,206
14.4896,196
14.4916,195
14.4936,196
14.4954,194
14.4976,191
14.4996,196
14.5016,205
14.5036,207
14.5056,200
14.5076,193
14.5096,196
14.5114,195
14.5114,192
14.5114,192
14.5114,203
14.5114,207
14.5114,203
14.5114,194
14.5114,196
14.5278,196
14.5278,193
14.5316,191
14.5336,200
14.5356,206
14.5356,205
14.5356,196
14.5356,195
14.5435,196
14.5455,195
14.5471,191
14.5496,196
14.5516,205
14.5536,207
14.5556,200
14.5576,194
14.5596,196
14.5596,195
14.5596,192
14.5596,192
14.5596,203
14.5596,207
14.5596,203
14.5596,193
14.5755,196
14.5755,196
14.5755,193
14.5755,191
14.5755,200
14.5755,206
14.5755,206
14.5755,196
14.5916,195
14.5936,196
14.5954,195
14.5954,191
14.5954,196
14.5954,205
14.5954,207
14.5954,199
14.6076,194
14.6076,196
14.6112,195
14.613,192
14.6156,193
14.6176,203
14.6176,207
14.6176,203
14.6235,193
14.6251,196
14.6282,196
14.6282,193
14.6282,191
14.6282,200
14.6282,206
14.6282,205
14.6396,195
14.6412,195
14.6436,196
14.6454,194
14.6476,191
14.6496,197
14.6516,205
14.6536,207
14.6556,199
14.6576,194
14.6596,196
14.6596,195
14.6596,192
14.6596,193
14.6596,203
14.6596,207
14.6715,203
14.6736,193
14.6756,196
14.6756,196
14.6756,194
14.6756,191
14.6756,200
14.6756,206
14.6875,205
14.6891,195
14.6891,195
14.6891,196
14.6891,194
14.6891,191
14.6891,197
14.6891,205
14.7035,207
14.7035,199
14.7035,194
14.7035,196
14.7035,195
14.7035,192
14.7035,193
14.7035,203
14.7196,207
14.7216,203
14.7236,193
14.7251,196
14.7281,196
14.7281,193
14.7316,191
14.7336,200
14.7356,206
14.7376,205
14.7396,195
14.7396,195
14.7396,196
14.7454,194
14.7476,191
14.7476,196
14.7517,204
14.7536,206
14.7556,198
14.7576,193
14.7596,196
14.7596,195
14.7596,191
14.7596,193
14.7676,203
14.7696,207
14.7716,203
14.7738,194
14.7758,197
14.7771,197
14.7771,194
14.7771,192
14.7834,201
14.7834,207
14.7834,205
14.7834,195
14.7834,195
14.7834,196
14.7954,194
14.7972,191
14.7986,197
14.8003,205
14.8037,207
14.8054,199
14.8072,194
14.8096,196
14.8105,195
14.8105,192
14.8147,193
14.8171,203
14.8171,207
14.8171,202
14.8171,193
14.8171,196
14.8171,196
14.8285,193
14.8307,191
14.8329,200
14.8329,206
14.8329,205
14.8329,195
14.8329,195
14.8329,196
14.8329,194
14.8462,191
14.8491,197
14.8511,205
14.8531,207
14.8551,199
14.8571,194
14.8591,196
14.8621,195
14.8621,192
14.8621,193
14.8621,203
14.8621,207
14.8712,202
14.8712,193
14.8712,196
14.8712,196
14.8712,193
14.8712,191
14.8712,201
14.8712,206
14.8872,205
14.8872,195
14.8872,195
14.8931,196
14.8951,194
14.8951,191
14.8951,197
14.8951,205
14.9038,207
14.9051,198
14.9071,194
14.9091,196
14.911,195
14.913,192
14.9151,194
14.9151,203
14.9196,207
14.9201,202
14.9201,193
14.9201,196
14.9201,196
14.9286,193
14.9286,191
14.9286,201
14.9351,206
14.9378,205
14.9396,195
14.9416,195
14.9416,196
14.9416,194
14.9416,191
14.9416,198
14.9511,205
14.9511,207
14.9511,198
14.9511,194
14.9511,196
14.9511,195
14.9511,192
14.9511,193
14.9671,203
14.9696,207
14.9716,202
14.9736,193
14.9756,196
14.9771,195
14.9771,193
14.9771,191
14.9829,201
14.9856,206
14.9856,205
14.9856,194
14.9856,195
14.9856,196
14.9856,194
14.9856,191
14.9991,198
15.0016,205
15.0036,206
15.0056,198
15.0076,194
15.0096,196
15.0111,195
15.0131,192
15.0156,194
15.0176,204
15.0183,207
15.0183,202
15.0183,193
15.0183,196
15.0183,196
15.029,193
15.0316,191
15.0316,201
15.0316,207
15.0316,205
15.0316,195
15.0316,196
15.0316,197
15.0316,194
15.0316,191
15.049,198
15.0511,206
15.0511,207
15.0511,198
15.0511,194
15.0511,196
15.0511,195
15.0637,192
15.0656,194
15.0656,204
15.0656,207
15.0656,202
15.0656,193
15.0656,196
15.0656,196
15.0794,193
15.0794,192
15.0842,201
15.0856,207
15.0856,205
15.0856,194
15.0856,195
15.0856,196
15.0955,194
15.0976,191
15.0996,198
15.1016,205
15.1036,206
15.1056,198
15.1076,194
15.1096,196
15.1111,195
15.1131,192
15.1156,194
15.1176,204
15.1196,207
15.1216,201
15.1236,193
15.1256,196
15.1272,196
15.1292,193
15.1292,191
15.1292,201
15.1292,207
15.1292,205
15.1292,195
15.1292,196
15.1431,196
15.1431,194
15.1431,191
15.1431,198
15.1431,206
15.1431,207
15.1431,198
15.1431,195
15.1611,196
15.1611,195
15.1631,192
15.1631,195
15.1631,204
15.1631,207
15.1631,201
15.1631,193
15.1751,196
15.1772,196
15.1772,193
15.1816,191
15.1836,201
15.1836,206
15.1836,204
15.1836,194
15.1911,196
15.1935,196
15.1935,194
15.1935,191
15.1935,199
15.1935,205
15.1935,206
15.1935,198
15.207,194
15.207,196
15.207,195
15.207,192
15.207,195
15.207,204
15.207,207
15.207,201
15.2231,193
15.2258,196
15.2274,195
15.2295,193
15.2295,191
15.2295,201
15.2295,207
15.2295,204
15.239,194
15.239,196
15.239,196
15.2453,194
15.2476,191
15.2496,199
15.2516,206
15.2536,206
15.2556,197
15.2556,195
15.2556,196
15.2556,195
15.2556,192
15.2556,195
15.2556,204
15.2556,207
15.2715,201
15.2715,193
15.2751,196
15.2772,195
15.2772,193
15.2816,191
15.2836,202
15.2856,207
15.2876,204
15.2896,194
15.2916,195
15.2936,196
15.2954,194
15.2976,191
15.2976,199
15.2976,206
15.3035,206
15.3056,197
15.3056,194
15.3056,196
15.3056,195
15.3056,191
15.3056,195
15.3056,204
15.3196,207
15.3209,201
15.3209,193
15.3209,196
15.3209,196
15.3209,193
15.3302,192
15.3302,202
15.3357,207
15.3357,204
15.3357,194
15.3357,196
15.3357,196
15.3454,194
15.3454,191
15.3454,199
15.3515,206
15.3515,206
15.3515,197
15.3515,194
15.3515,196
15.3515,195
15.3515,191
15.3515,195
15.3675,204
15.3693,207
15.3703,201
15.3723,193
15.3723,196
15.3723,195
15.3787,193
15.3816,192
15.3836,202
15.3856,207
15.3876,204
15.3896,194
15.3916,195
15.3936,196
15.3952,194
15.3976,191
15.3996,199
15.4016,206
15.4036,206
15.4056,197
15.4076,195
15.4096,196
15.4111,195
15.4131,191
15.4156,195
15.4176,204
15.4196,207
15.4216,201
15.4236,193
15.4256,196
15.4272,195
15.4272,193
15.4308,192
15.4308,202
15.4355,207
15.4376,204
15.4396,194
15.4396,195
15.4396,196
15.4396,194
15.4396,190
15.4396,199
15.4517,206
15.4517,206
15.4517,197
15.4517,195
15.4517,196
15.4517,195
15.4517,191
15.4517,195
15.4675,204
15.4696,207
15.4716,200
15.4736,193
15.4736,196
15.4736,195
15.4736,192
15.4736,191
15.4834,202
15.4851,206
15.4876,203
15.4896,193
15.4916,195
15.4936,195
15.4936,193
15.4976,190
15.4996,199
15.4996,206
15.5036,206
15.5056,196
15.5056,195
15.5056,197
15.5056,195
15.5056,192
15.5157,196
15.5171,205
15.5196,208
15.5216,201
15.5236,193
15.5236,196
15.5236,195
15.5236,193
15.5316,192
15.5336,202
15.5356,207
15.5376,204
15.5396,194
15.5416,196
15.5436,196
15.5436,194
15.5476,190
15.5496,199
15.5516,206
15.5536,206
15.5556,196
15.5576,195
15.5596,196
15.5596,195
15.5633,191
15.5656,196
15.5656,204
15.5656,207
15.5656,200
15.5656,193
15.5656,196
15.5656,195
15.5793,193
15.5793,192
15.5793,202
15.5793,207
15.5793,203
15.5793,194
15.5793,196
15.5793,196
15.5954,193
15.5974,191
15.5984,199
15.6016,206
15.6031,206
15.6058,196
15.6058,195
15.6058,196
15.6115,195
15.6135,191
15.6152,196
15.6169,204
15.6187,207
15.6204,200
15.6221,193
15.6238,196
15.6274,195
15.6274,192
15.6322,192
15.6331,202
15.6351,207
15.6371,203
15.6371,194
15.6371,196
15.6435,196
15.6435,193
15.6471,191
15.6491,199
15.6511,206
15.6531,206
15.6551,196
15.6571,195
15.6591,196
15.661,194
15.661,191
15.661,196
15.661,204
15.661,207
15.661,199
15.661,193
15.6751,196
15.6771,195
15.6771,192
15.6771,192
15.6771,202
15.6771,207
15.6771,203
15.6771,194
15.6912,196
15.6936,196
15.6936,193
15.6936,190
15.6936,199
15.6936,206
15.6936,205
15.6936,196
15.7071,195
15.7071,196
15.7071,194
15.7071,191
15.7071,196
15.7071,205
15.7071,207
15.7071,200
15.7231,194
15.7256,196
15.7273,195
15.7273,192
15.7322,192
15.7336,202
15.7356,207
15.7356,203
15.7397,193
15.7404,196
15.7404,196
15.7404,193
15.7404,191
15.7404,200
15.7404,206
15.7404,206
15.7551,196
15.7551,195
15.7551,196
15.7551,195
15.7551,191
15.7551,197
15.7551,205
15.7551,207
15.7712,200
15.7712,194
15.7712,197
15.7712,195
15.7712,192
15.7712,193
15.7712,203
15.7712,207
15.7871,203
15.7896,194
15.7896,196
15.7896,196
15.7896,194
15.7896,191
15.7896,200
15.7896,206
15.803,206
15.803,196
15.803,195
15.803,196
15.803,194
15.803,191
15.803,197
15.803,205
15.8191,207
15.8212,199
15.8232,194
15.8252,196
15.8252,195
15.8293,192
15.8293,193
15.8326,203
15.8349,207
15.837,203
15.8381,193
15.8401,196
15.8401,196
15.8401,193
15.846,191
15.846,200
15.8509,206
15.8509,205
15.8509,195
15.8509,195
15.8509,197
15.8509,195
15.8509,191
15.8509,197
15.8672,205
15.8696,207
15.8712,199
15.8712,193
15.8712,196
15.8712,195
15.8793,192
15.8793,193
15.8833,203
15.8852,207
15.8872,203
15.8896,193
15.8916,196
15.8936,196
15.8936,193
15.8976,191
15.8996,200
15.8996,206
15.8996,205
15.9056,195
15.9076,195
15.9096,196
15.9096,194
15.9121,191
15.9156,197
15.9176,205
15.9176,207
15.9216,199
15.9236,194
15.9256,196
15.9256,195
15.9256,192
15.9256,193
15.9328,203
15.9328,207
15.9374,202
15.9374,193
15.9416,196
15.9436,196
15.9436,193
15.9436,191
15.9436,200
15.9436,206
15.9536,205
15.9536,195
15.9557,195
15.9557,196
15.9557,194
15.9557,191
15.9557,197
15.9557,205
15.9696,207
15.9716,199
15.9736,194
15.9756,196
15.9774,195
15.9774,192
15.9774,193
15.9774,203
15.9857,207
15.9878,202
15.9896,193
15.9896,196
15.9896,196
15.9896,193
15.9896,191
15.9896,200
16.0016,206
16.0036,205
16.0056,195
16.0076,195
16.0096,196
16.0111,194
16.0111,191
16.0111,197
16.0175,205
16.0175,207
16.0175,199
16.0175,194
16.0175,196
16.0175,195
16.0175,192
16.0175,193
16.0333,203
16.0356,207
16.0376,202
16.0376,193
16.0376,196
16.0376,196
16.0453,193
16.0453,191
16.0492,201
16.0516,206
16.0536,205
16.0556,195
16.0576,195
16.0596,196
16.0596,194
16.0596,191
16.0654,197
16.0654,205
16.0654,207
16.0654,199
16.0654,194
16.0654,196
16.0654,195
16.0654,192
16.0817,193
16.0817,203
16.0817,207
16.0817,202
16.0817,193
16.0817,196
16.0817,196
16.0954,193
16.0976,191
16.0996,201
16.1016,207
16.1016,205
16.1016,195
16.1016,195
16.1016,196
16.1016,194
16.1136,191
16.1152,198
16.1176,205
16.1196,207
16.1216,199
16.1236,194
16.1256,196
16.1272,195
16.1295,192
16.1295,193
16.1337,203
16.1337,207
16.1337,202
16.1337,193
16.1337,196
16.1337,196
16.1453,193
16.1476,191
16.1496,201
16.1516,207
16.1516,205
16.1516,195
16.1516,195
16.1516,196
16.1613,194
16.1613,191
16.1613,198
16.1613,205
16.1613,207
16.1613,198
16.1613,194
16.1613,196
16.1773,195
16.1773,192
16.1773,194
16.1773,203
16.1773,207
16.1773,202
16.1773,193
16.1773,196
16.1936,196
16.1936,193
16.1936,191
16.1936,201
16.1936,206
16.1936,204
16.1936,194
16.1936,195
16.2096,196
16.2096,193
16.2096,190
16.2096,197
16.2096,205
16.2096,206
16.2096,198
16.2096,194
16.2255,196
16.2272,195
16.229,192
16.2316,195
16.2341,204
16.2356,208
16.2356,202
16.2356,193
16.2416,196
16.2436,196
16.2436,193
16.2436,191
16.2436,201
16.2436,206
16.2436,205
16.2436,195
16.2575,195
16.2575,196
16.2611,194
16.2611,191
16.2611,198
16.2611,206
16.2611,206
16.2611,198
16.2736,194
16.2756,196
16.2772,195
16.2772,192
16.2772,194
16.2772,204
16.2772,207
16.2772,202
16.2895,193
16.2916,196
16.2938,196
16.2938,193
16.2938,191
16.2938,201
16.2938,206
16.2938,205
16.3057,194
16.3057,195
16.3057,196
16.3057,194
16.3057,191
16.3057,198
16.3057,205
16.3057,206
16.3217,198
16.3232,194
16.3232,196
16.3232,195
16.3232,192
16.3232,194
16.3337,204
16.3337,207
16.3375,201
16.3375,193
16.3375,196
16.3375,195
16.3453,193
16.3453,191
16.3453,201
16.3453,207
16.3535,204
16.3552,194
16.3576,195
16.3596,196
16.3596,194
16.3596,191
16.3596,198
16.3596,206
16.3696,206
16.3716,198
16.3716,194
16.3716,196
16.3716,195
16.3716,192
16.3716,194
16.3716,204
16.3855,207
16.3855,201
16.3855,193
16.3916,196
16.3936,195
16.3953,193
16.3953,191
16.3953,201
16.4016,207
16.4016,204
16.4016,194
16.4016,195
16.4016,196
16.4016,194
16.4016,191
16.4016,198
16.4176,206
16.4192,206
16.4192,198
16.4192,194
16.4192,196
16.4192,195
16.4295,191
16.4316,195
16.4341,204
16.4356,207
16.4376,201
16.4396,193
16.4416,196
16.4436,195
16.4449,193
16.4449,191
16.4449,201
16.4449,207
16.4536,204
16.4536,194
16.4567,195
16.4567,196
16.4567,194
16.4567,191
16.4567,199
16.4567,206
16.4696,206
16.4696,197
16.4733,194
16.4733,196
16.4733,195
16.4733,192
16.4733,195
16.4733,204
16.4855,207
16.4878,201
16.4899,193
16.4912,196
16.4936,195
16.4953,193
16.4976,192
16.4976,202
16.5014,207
16.5036,204
16.5056,194
16.5076,196
16.5096,196
16.5111,194
16.5111,191
16.5111,199
16.5175,206
16.5195,207
16.5195,197
16.5229,195
16.5249,196
16.5249,195
16.5294,191
16.5294,195
16.5331,204
16.5343,207
16.5372,201
16.5396,193
16.5416,196
16.5436,196
16.5453,193
16.5476,192
16.5496,202
16.5516,207
16.5536,204
16.5536,194
16.5536,196
16.5536,196
16.5536,194
16.5536,191
16.5657,199
16.5657,206
16.5696,206
16.5696,197
16.5696,194
16.5696,196
16.5696,195
16.5696,191
16.5815,195
16.5815,204
16.5815,207
16.5815,201
16.5815,193
16.5815,196
16.5815,195
16.5953,193
16.5975,192
16.5996,202
16.6016,207
16.6036,204
16.6056,194
16.6076,196
16.6096,196
16.6096,194
16.6133,191
16.6156,199
16.6156,206
16.6156,206
16.6156,197
16.6156,195
16.6156,196
16.6156,195
16.6293,191
16.6313,195
16.6334,204
16.6344,207
16.6376,201
16.6396,193
16.6416,196
16.6416,195
16.6454,193
16.6471,192
16.6496,202
16.6516,207
16.6536,204
16.6556,194
16.6576,196
16.6596,196
16.6614,194
16.6614,190
16.6614,199
16.6614,206
16.6614,206
16.6614,197
16.6614,195
16.6614,196
16.6774,195
16.6794,191
16.6816,195
16.6836,204
16.6856,207
16.6876,200
16.6896,193
16.6896,196
16.6936,195
16.6936,193
16.6936,192
16.6936,202
16.6936,207
16.6936,204
16.6936,194
16.6936,196
16.7095,196
16.7095,194
16.7095,190
16.7095,199
16.7095,206
16.7095,206
16.7095,197
16.7095,195
16.7255,196
16.7272,195
16.7272,191
16.7272,196
16.7272,204
16.735,207
16.735,200
16.735,193
16.7416,196
16.7436,195
16.7453,192
16.7476,192
16.7496,202
16.7516,207
16.7516,204
16.7516,194
16.7574,196
16.7596,196
16.7596,194
16.7596,190
16.7596,199
16.7596,206
16.7596,206
16.7596,196
16.7734,195
16.7756,196
16.7771,195
16.7771,191
16.7816,196
16.7836,205
16.7856,207
16.7876,200
16.7896,193
16.7916,196
16.7936,195
16.7953,193
16.7976,192
16.7996,202
16.8016,207
16.8036,203
16.8056,194
16.8076,196
16.8096,196
16.8111,194
16.8131,191
16.8131,199
16.8131,206
16.8131,206
16.8215,196
16.8215,195
16.8215,196
16.8215,195
16.8215,191
16.8215,196
16.8215,205
16.8356,207
16.8375,200
16.8375,194
16.8375,196
16.8375,195
16.8375,193
16.8375,192
16.8375,203
16.8375,207
16.8534,203
16.8549,194
16.857,196
16.8596,196
16.8596,193
16.8628,191
16.8628,200
16.8628,206
16.8695,206
16.8711,196
16.8711,195
16.8711,196
16.8711,195
16.8711,191
16.8711,196
16.8711,205
16.8856,207
16.8856,200
16.8896,193
16.8916,196
16.8936,195
16.8936,192
16.8976,192
16.8996,202
16.9017,207
16.9036,203
16.9036,194
16.9036,196
16.9036,196
16.9036,194
16.9036,191
16.9036,200
16.9175,206
16.9175,205
16.9203,196
16.9223,195
16.9244,196
16.9286,194
16.9293,191
16.9313,195
16.9334,204
16.9359,206
16.9359,199
16.9359,193
16.9359,196
16.9359,194
16.9359,192
16.9359,192
16.9495,203
16.9517,207
16.9517,204
16.9537,194
16.9577,197
16.9577,197
16.9597,194
16.9617,191
16.9617,200
16.9617,206
16.9617,206
16.9711,196
16.9736,195
16.9756,196
16.9756,195
16.9794,191
16.9816,196
16.9836,205
16.9856,207
16.9856,200
16.9856,194
16.9856,196
16.9941,195
16.9941,192
16.9976,193
16.9996,203
17.0016,207
17.0036,203
17.0056,193
17.0076,196
17.0096,196
17.0111,194
17.0131,191
17.0131,200
17.0131,206
17.0131,205
17.0131,196
17.0131,195
17.0255,196
17.0255,194
17.0255,191
17.0255,197
17.0255,205
17.0359,207
17.0359,199
17.0359,194
17.0416,196
17.0431,195
17.0431,192
17.0431,193
17.0431,203
17.0431,207
17.0431,203
17.0431,193
17.0575,196
17.0596,196
17.0596,193
17.0596,191
17.0596,200
17.0596,206
17.0596,205
17.0596,195
17.0736,195
17.0736,196
17.0736,195
17.0736,191
17.0736,197
17.0736,205
17.0736,207
17.0736,199
17.0895,193
17.0918,196
17.0937,195
17.0937,192
17.0976,193
17.0996,203
17.1016,207
17.1036,203
17.1056,193
17.1076,196
17.1096,196
17.1111,193
17.1131,191
17.1131,200
17.1131,206
17.1131,205
17.1215,195
17.1215,195
17.1215,196
17.1215,194
17.1215,191
17.1215,197
17.1215,205
17.1363,207
17.1371,199
17.1396,193
17.1416,196
17.1436,195
17.1443,192
17.1476,193
17.1496,203
17.1516,207
17.1536,202
17.1556,193
17.1576,196
17.1576,196
17.1576,193
17.1576,191
17.1576,200
17.1576,206
17.1695,205
17.1695,195
17.1695,195
17.1756,196
17.1771,194
17.1771,191
17.1816,197
17.1836,205
17.1857,207
17.187,199
17.187,194
17.187,196
17.187,195
17.1953,192
17.1953,193
17.1953,203
17.2017,207
17.2017,203
17.2017,193
17.2017,196
17.2017,196
17.2017,193
17.2017,191
17.2017,201
17.2176,206
17.2196,205
17.2216,195
17.2236,196
17.2256,196
17.2271,195
17.2271,191
17.2271,197
17.2336,205
17.2336,207
17.2381,199
17.2396,194
17.2416,196
17.2436,195
17.2436,192
17.2436,193
17.2496,203
17.2516,207
17.2516,202
17.2516,193
17.2516,196
17.2516,196
17.2516,193
17.2516,191
17.2657,201
17.2672,206
17.2696,205
17.2716,195
17.2736,195
17.275,196
17.2772,194
17.2772,191
17.2815,198
17.2815,205
17.2815,207
17.2815,199
17.2815,194
17.2815,196
17.2815,195
17.2815,192
17.2974,194
17.2996,203
17.3016,207
17.3036,202
17.3056,193
17.3076,196
17.3096,196
17.3111,193
17.3131,191
17.3156,201
17.3156,207
17.3156,205
17.3156,195
17.3156,195
17.3156,196
17.3156,194
17.3292,191
17.3292,198
17.3292,205
17.3292,206
17.3379,198
17.3379,194
17.3379,196
17.3379,195
17.3453,192
17.3476,194
17.3496,203
17.3516,207
17.3536,202
17.3556,193
17.3556,196
17.3556,196
17.3613,193
17.3613,191
17.3613,201
17.3613,206
17.3613,205
17.3613,194
17.3613,195
17.3613,196
17.3774,194
17.379,191
17.3816,198
17.3816,205
17.3816,207
17.3816,198
17.3816,194
17.3816,196
17.3935,195
17.3935,192
17.3935,194
17.3996,203
17.3996,207
17.3996,202
17.3996,193
17.3996,196
17.4096,196
17.411,193
17.4131,191
17.4156,201
17.4176,206
17.4196,205
17.4216,195
17.4236,195
17.4256,196
17.4272,194
17.4272,191
17.4272,198
17.4272,205
17.4272,207
17.4379,198
17.4379,194
17.4416,196
17.4416,195
17.4416,192
17.4416,194
17.4416,203
17.4416,207
17.4416,202
17.4416,193
17.4575,196
17.4575,196
17.4575,193
17.4575,191
17.4575,201
17.4575,206
17.4575,205
17.4575,194
17.4736,195
17.4753,196
17.4773,194
17.4783,191
17.4816,198
17.4836,205
17.4856,207
17.4876,198
17.4896,194
17.4896,196
17.4936,195
17.4936,192
17.4959,194
17.4959,204
17.4959,207
17.4959,201
17.5056,193
17.5056,196
17.5096,196
17.511,193
17.5131,191
17.5156,201
17.5176,207
17.5196,204
17.5216,194
17.5236,196
17.5256,196
17.5271,194
17.5271,191
17.5271,198
17.5271,205
17.5271,207
17.538,198
17.538,194
17.538,196
17.538,195
17.538,192
17.538,194
17.538,204
17.538,207
17.5536,201
17.5556,193
17.5576,196
17.5596,195
17.5596,193
17.5596,191
17.5596,201
17.5596,206
17.5696,204
17.5711,195
17.5711,195
17.5711,196
17.5711,194
17.5711,191
17.5711,198
17.5711,206
17.5856,206
17.5856,198
17.5856,194
17.5856,196
17.5856,195
17.5856,192
17.5856,194
17.5856,204
17.6016,207
17.6031,201
17.6056,193
17.6076,196
17.6096,196
17.6096,193
17.6096,191
17.6096,201
17.6175,207
17.6196,204
17.6216,194
17.6236,195
17.6256,196
17.6271,194
17.6271,191
17.6316,198
17.6336,206
17.6356,206
17.6381,197
17.6392,194
17.6416,196
17.6436,195
17.6453,192
17.6453,195
17.6496,204
17.6511,207
17.6511,201
17.6511,193
17.6511,196
17.6511,195
17.6511,192
17.6511,191
17.6655,201
17.6655,206
17.6655,204
17.6655,193
17.6655,195
17.6655,195
17.6655,193
17.6655,190
17.6815,198
17.6836,205
17.6856,206
17.6876,198
17.6896,195
17.6916,197
17.6916,196
17.6916,192
17.6974,196
17.6996,205
17.6996,207
17.6996,201
17.6996,193
17.6996,196
17.6996,195
17.6996,193
17.7133,192
17.7133,202
17.7133,207
17.7133,204
17.7133,194
17.7133,196
17.7133,196
17.7133,194
17.7289,191
17.731,199
17.7336,206
17.7356,206
17.7381,197
17.7396,194
17.7416,196
17.7416,195
17.7448,191
17.7476,195
17.7496,204
17.7516,207
17.7536,201
17.7536,193
17.7536,196
17.7536,195
17.7611,193
17.7611,192
17.7611,202
17.7611,207
17.7611,204
17.7611,194
17.7611,196
17.7611,196
17.777,194
17.777,191
17.7816,199
17.7836,206
17.7856,206
17.7876,197
17.7896,195
17.7916,196
17.7936,195
17.7936,191
17.7976,195
17.7996,204
17.8016,207
17.8036,201
17.8036,193
17.8036,196
17.8094,195
17.8114,193
17.8114,192
17.8114,202
17.8176,207
17.8176,204
17.8176,194
17.8176,196
17.8256,196
17.8276,194
17.8276,191
17.8276,199
17.8276,206
17.8276,206
17.8276,197
17.8383,195
17.8417,196
17.8417,195
17.8417,191
17.8417,195
17.8417,204
17.8417,207
17.8417,200
17.8417,193
17.8575,196
17.8591,195
17.8611,193
17.8611,192
17.8611,202
17.8611,207
17.8611,204
17.8611,194
17.8735,196
17.8754,196
17.8776,194
17.8776,191
17.8816,199
17.8836,206
17.8836,206
17.8836,197
17.8895,195
17.8916,196
17.8935,194
17.8953,191
17.8976,195
17.8996,204
17.9016,207
17.9036,200
17.9056,193
17.9076,196
17.9076,195
17.9076,192
17.9076,192
17.9076,202
17.9076,207
17.9076,204
17.9216,194
17.9216,196
17.9256,196
17.9272,194
17.9272,190
17.9272,199
17.9272,206
17.9272,206
17.9376,197
17.9387,195
17.9387,196
17.9387,195
17.9387,192
17.9387,196
17.9387,205
17.9387,207
17.9536,200
17.9536,194
17.9536,196
17.9536,195
17.9536,193
17.9536,192
17.9536,202
17.9536,207
17.9696,204
17.9696,194
17.9696,196
17.9696,196
17.9696,194
17.9696,191
17.9696,200
17.9696,206
17.9856,206
17.9876,197
17.9896,195
17.9916,196
17.9935,195
17.9953,191
17.9953,196
17.9953,205
18.0016,207
18.0016,200
18.0016,193
18.0016,196
18.0016,195
18.0016,193
18.0016,192
18.0016,202
18.0175,207
18.0192,203
18.0199,194
18.0236,196
18.0256,196
18.0272,193
18.0293,191
18.0316,200
18.0336,206
18.0351,206
18.0376,196
18.0402,195
18.0416,196
18.0435,195
18.0449,191
18.0471,196
18.0471,205
18.0471,207
18.0535,200
18.0556,193
18.0576,196
18.0596,195
18.0596,192
18.0596,192
18.0596,203
18.0596,207
18.0697,203
18.0711,194
18.0711,196
18.0711,196
18.0711,193
18.0711,191
18.0711,200
18.0711,206
18.0856,206
18.0856,196
18.0856,195
18.0856,196
18.0856,195
18.0953,191
18.0953,196
18.0953,205
18.1016,207
18.1016,200
18.1016,193
18.1016,196
18.1016,195
18.1016,192
18.1016,192
18.1016,202
18.1174,207
18.1185,203
18.1185,193
18.1185,196
18.1185,196
18.1185,194
18.1185,191
18.1185,200
18.1332,206
18.1343,206
18.1363,196
18.1401,195
18.1416,196
18.1435,195
18.1453,191
18.1476,196
18.1496,205
18.1516,207
18.1536,199
18.1556,194
18.1556,196
18.1556,195
18.1556,192
18.1556,193
18.1657,203
18.1671,207
18.1696,203
18.1696,193
18.1696,196
18.1696,196
18.1696,193
18.1696,191
18.1817,200
18.1836,206
18.1856,205
18.1876,195
18.1876,195
18.1876,196
18.1876,195
18.1876,191
18.1976,197
18.1996,205
18.1996,207
18.1996,199
18.1996,194
18.1996,196
18.1996,195
18.1996,192
18.2136,193
18.2156,203
18.2156,207
18.2156,203
18.2156,193
18.2156,196
18.2156,196
18.2156,193
18.2293,191
18.2293,200
18.2293,206
18.2293,205
18.2293,196
18.2293,195
18.2402,197
18.2402,194
18.2452,191
18.2478,197
18.2498,205
18.2518,207
18.2538,199
18.2538,194
18.2538,196
18.2538,195
18.2613,192
18.2613,193
18.2613,203
18.2613,207
18.2613,203
18.2613,193
18.2613,196
18.2613,196
18.2775,193
18.2791,191
18.2816,200
18.2836,206
18.2836,205
18.2836,195
18.2836,195
18.2836,196
18.2934,194
18.2943,191
18.2976,197
18.2996,205
18.3016,207
18.3036,199
18.3056,194
18.3076,196
18.3096,195
18.3111,192
18.3131,193
18.3131,203
18.3131,207
18.3131,203
18.3131,193
18.3131,196
18.3256,196
18.3256,193
18.3256,191
18.3256,200
18.3256,206
18.3256,205
18.3256,195
18.3256,195
18.3416,196
18.3435,194
18.3435,191
18.3435,197
18.3435,205
18.3435,207
18.3435,199
18.3435,194
18.3577,196
18.3577,195
18.3577,192
18.3577,193
18.3577,203
18.3577,207
18.3577,202
18.3577,193
18.3738,196
18.3756,196
18.3771,193
18.379,191
18.3816,200
18.3836,206
18.3856,205
18.3876,195
18.3896,195
18.3916,196
18.3916,194
18.3916,191
18.3916,197
18.3916,205
18.3916,207
18.3916,199
18.4055,194
18.4067,196
18.4087,195
18.4111,192
18.413,193
18.4156,203
18.4176,206
18.4196,202
18.4216,192
18.4238,195
18.4259,195
18.4276,192
18.4276,191
18.4316,200
18.4316,206
18.4316,205
18.4378,195
18.4378,196
18.4421,197
18.4435,195
18.4441,192
18.4441,198
18.4441,206
18.4441,207
18.4538,199
18.4538,194
18.4538,196
18.4538,195
18.4538,192
18.4538,193
18.4538,203
18.4538,207
18.4698,202
18.4698,193
18.4736,196
18.4736,196
18.4736,193
18.4736,191
18.4736,201
18.4736,206
18.4858,205
18.4858,195
18.4858,195
18.4858,196
18.4858,194
18.4953,191
18.4953,198
18.4953,205
18.5018,207
18.5036,199
18.5056,194
18.5076,196
18.5096,195
18.511,191
18.511,193
18.511,203
18.5178,207
18.5196,202
18.5216,193
18.5236,196
18.5256,195
18.5256,193
18.5256,191
18.5256,201
18.5338,206
18.5356,205
18.5361,195
18.5396,195
18.5421,196
18.5435,194
18.5452,191
18.5476,198
18.5496,205
18.5496,207
18.5536,198
18.5556,194
18.5576,196
18.5596,195
18.5621,192
18.5627,194
18.5627,203
18.5627,207
18.5627,202
18.5627,193
18.5627,196
18.5627,196
18.5778,193
18.5791,191
18.5806,201
18.5827,206
18.5843,205
18.5876,195
18.5899,195
18.5911,196
18.5935,194
18.5935,191
18.5935,198
18.5935,205
18.5935,206
18.5935,198
18.5935,194
18.5935,196
18.6095,195
18.6095,192
18.6095,194
18.6095,203
18.6095,207
18.6095,202
18.6095,193
18.6095,196
18.6252,195
18.6271,193
18.6271,191
18.6311,201
18.6331,206
18.6351,204
18.6371,194
18.6391,195
18.6417,196
18.6417,194
18.6417,191
18.6417,198
18.6417,205
18.6417,206
18.6417,198
18.6417,194
18.6572,196
18.6591,195
18.6591,192
18.6591,194
18.6591,203
18.6591,207
18.6591,202
18.6591,193
18.6732,196
18.6751,196
18.6771,193
18.6771,191
18.6811,201
18.6831,207
18.6851,205
18.6871,195
18.6891,195
18.6911,196
18.6911,194
18.6911,191
18.6911,198
18.6911,206
18.6911,207
18.6911,198
18.7058,194
18.7063,196
18.7063,195
18.7063,192
18.7063,194
18.7063,204
18.7063,207
18.7063,202
18.7212,193
18.7236,196
18.7236,196
18.7236,193
18.7236,191
18.7236,201
18.7236,207
18.7236,205
18.7371,195
18.7371,195
18.7418,196
18.7418,194
18.7453,191
18.7453,198
18.7453,206
18.7453,207
18.7531,198
18.7531,194
18.7531,196
18.7531,195
18.7531,192
18.7531,194
18.7531,204
18.7531,207
18.7691,201
18.7718,193
18.7736,196
18.7754,196
18.7776,193
18.7794,191
18.7816,201
18.7816,206
18.785,205
18.7876,194
18.7876,195
18.7876,196
18.7876,194
18.7876,191
18.7876,198
18.7876,206
18.8011,206
18.8031,198
18.8031,194
18.8031,196
18.8031,195
18.8031,192
18.8031,195
18.8031,204
18.817,207
18.817,201
18.817,193
18.817,196
18.817,196
18.817,193
18.817,192
18.817,202
18.8333,207
18.8356,204
18.8356,194
18.8356,195
18.842,196
18.842,194
18.842,191
18.842,198
18.8491,206
18.8491,207
18.8491,198
18.8491,194
18.8491,196
18.8491,195
18.8491,192
18.8491,195
18.8654,204
18.8654,207
18.8654,201
18.8654,193
18.8654,196
18.8654,195
18.8654,193
18.8654,191
18.8817,202
18.8831,207
18.8856,204
18.8876,194
18.8896,195
18.8916,196
18.8935,194
18.8935,191
18.8976,199
18.8996,206
18.9016,206
18.9036,197
18.9056,194
18.9076,196
18.9076,195
18.9076,191
18.9136,195
18.9136,204
18.9136,207
18.9136,201
18.9136,193
18.9136,196
18.9136,195
18.9136,193
18.9295,192
18.9311,202
18.9311,207
18.9311,204
18.9311,194
18.9311,195
18.9311,196
18.9425,194
18.9451,191
18.9451,199
18.9451,206
18.9511,206
18.9511,197
18.9511,194
18.9511,196
18.9511,195
18.961,191
18.961,195
18.961,204
18.961,207
18.961,201
18.961,193
18.961,196
18.961,195
18.9772,193
18.9772,192
18.9816,202
18.9816,207
18.9816,204
18.9816,194
18.9816,195
18.9816,196
18.9931,194
18.9931,191
18.9931,199
18.9931,206
18.9931,206
18.9931,197
18.9931,195
18.9931,196
19.009,195
19.0111,191
19.0131,195
19.0156,204
19.0176,207
19.0196,201
19.0216,193
19.0236,196
19.0256,195
19.0273,193
19.0273,192
19.0273,202
19.0273,207
19.0273,204
19.0273,194
19.0273,195
19.0415,196
19.0437,194
19.0442,190
19.0442,199
19.0442,206
19.0442,206
19.0442,197
19.0442,195
19.0576,196
19.0576,194
19.0576,191
19.0576,195
19.0576,204
19.0576,207
19.0576,200
19.0576,193
19.0736,196
19.0752,195
19.0771,193
19.0793,192
19.0816,202
19.0836,207
19.0856,204
19.0876,194
19.0896,195
19.0916,196
19.0935,194
19.0951,190
19.0971,199
19.0996,206
19.0996,206
19.0996,197
19.1056,195
19.1072,196
19.1072,195
19.1072,191
19.1072,196
19.1072,204
19.1072,207
19.1072,200
19.1216,193
19.1216,196
19.1216,195
19.1216,192
19.1216,192
19.1216,202
19.1216,207
19.1216,204
19.1376,194
19.1391,195
19.1416,196
19.144,193
19.144,190
19.1476,200
19.1496,206
19.1516,206
19.1536,196
