timestamp,ecg_value
0.0,190
0.0017,201
0.0017,207
0.0017,207
0.0017,196
0.0035,195
0.0035,195
0.0035,193
0.0035,190
0.0035,197
0.0035,207
0.0035,208
0.0051,199
0.0051,193
0.0051,195
0.0051,194
0.0051,190
0.0051,193
0.0051,205
0.0068,208
0.0068,203
0.0068,192
0.0068,194
0.0068,194
0.0068,192
0.0068,191
0.0085,202
0.0085,208
0.0085,205
0.0085,194
0.0085,192
0.0085,193
0.0085,192
0.0085,191
0.0085,198
0.0085,207
0.0085,208
0.0085,197
0.0085,190
0.0085,192
0.0085,192
0.0118,191
0.0118,193
0.0118,205
0.0138,208
0.0138,201
0.0138,189
0.0152,191
0.0152,191
0.0152,191
0.0152,189
0.0152,200
0.0152,207
0.0152,203
0.0152,189
0.0172,188
0.0172,189
0.0185,188
0.0193,186
0.0193,193
0.0193,202
0.0193,201
0.0204,190
0.0204,182
0.0204,185
0.0204,184
0.0204,182
0.0204,184
0.0204,195
0.0204,197
0.0204,189
0.0204,177
0.0204,179
0.0204,178
0.0204,176
0.0204,174
0.0204,183
0.0204,189
0.0204,185
0.0204,173
0.0248,172
0.0248,173
0.0269,173
0.0269,171
0.0269,179
0.0269,187
0.0269,188
0.0269,179
0.0269,173
0.0269,176
0.0269,177
0.0269,175
0.0269,178
0.0322,189
0.0322,193
0.0322,187
0.0322,177
0.0322,180
0.0322,182
0.0322,182
0.0322,181
0.0342,192
0.0342,198
0.0342,195
0.0342,184
0.0342,184
0.0362,186
0.0369,186
0.0369,185
0.0369,192
0.0369,200
0.0369,200
0.0369,191
0.0369,185
0.0369,188
0.0369,189
0.0369,187
0.0369,189
0.0369,200
0.0369,203
0.0412,196
0.0412,186
0.0412,189
0.0412,190
0.0412,189
0.0412,189
0.0412,199
0.0412,204
0.0412,201
0.0412,189
0.0412,189
0.0412,191
0.0412,191
0.0412,189
0.0412,196
0.0412,204
0.0412,204
0.0412,195
0.0412,190
0.0412,192
0.0412,192
0.0412,190
0.0412,192
0.0412,203
0.0412,205
0.0412,201
0.0412,191
0.0412,194
0.0412,194
0.0412,191
0.0412,190
0.0412,200
0.0412,205
0.052,204
0.052,194
0.052,194
0.0535,195
0.0535,193
0.0535,190
0.0535,196
0.0535,204
0.0535,206
0.0555,198
0.0555,194
0.0555,196
0.0555,195
0.0555,191
0.0555,193
0.0555,202
0.0555,206
0.0555,202
0.0555,193
0.0555,196
0.0555,196
0.0555,193
0.0555,191
0.0555,200
0.0555,206
0.0555,205
0.0555,195
0.0555,196
0.0555,197
0.0555,195
0.0555,191
0.0555,197
0.0555,205
0.0555,207
0.0555,199
0.0555,195
0.0555,197
0.0555,196
0.0555,193
0.0555,194
0.0555,203
0.0555,207
0.0555,203
0.0555,194
0.0555,197
0.0555,197
0.0555,194
0.0555,192
0.0555,201
0.0555,206
0.0555,205
0.0555,196
0.0555,196
0.0555,197
0.0555,195
0.0555,192
0.0555,198
0.0555,206
0.0555,207
0.0555,199
0.0555,194
0.0678,197
0.0678,197
0.0686,194
0.0686,195
0.0686,204
0.0697,208
0.0697,203
0.0697,193
0.0697,196
0.0697,197
0.0697,195
0.0697,194
0.0717,202
0.0717,208
0.0717,206
0.0717,195
0.0717,195
0.0717,197
0.0717,196
0.0717,194
0.0717,200
0.0717,207
0.0717,207
0.0717,198
0.0717,194
0.0717,196
0.0717,196
0.0717,195
0.0717,197
0.0717,206
0.0717,208
0.0717,202
0.0717,192
0.0717,196
0.0717,197
0.0717,195
0.0717,194
0.0717,203
0.0717,208
0.0717,205
0.0717,194
0.0717,195
0.0717,197
0.0717,196
0.0717,194
0.0717,201
0.0717,208
0.0717,207
0.0717,198
0.0717,193
0.0717,196
0.0805,196
0.0805,194
0.0805,197
0.0805,206
0.0813,208
0.0813,202
0.0813,193
0.0813,196
0.0813,196
0.0813,195
0.0813,194
0.0813,204
0.0813,208
0.0813,205
0.0813,194
0.0813,195
0.0813,197
0.0839,196
0.0839,194
0.0839,200
0.0851,207
0.0851,207
0.0851,198
0.0851,193
0.0867,196
0.0867,196
0.0867,194
0.0867,197
0.0867,206
0.0867,208
0.0867,202
0.0887,192
0.0887,196
0.0887,196
0.0887,195
0.0887,194
0.0887,204
0.0887,208
0.0887,205
0.0887,194
0.0887,195
0.0887,197
0.0887,196
0.0887,194
0.0887,201
0.0887,207
0.0887,207
0.0887,198
0.0887,193
0.0887,196
0.0887,196
0.0887,194
0.0887,197
0.0887,206
0.0887,208
0.0887,202
0.0887,192
0.0887,196
0.0887,197
0.0887,195
0.0887,194
0.0887,204
0.0887,208
0.0887,205
0.0887,194
0.0887,195
0.0887,197
0.0887,196
0.0887,194
0.0887,200
0.0887,207
0.0887,207
0.0887,198
0.0887,193
0.0887,196
0.0887,196
0.0887,194
0.0887,197
0.0887,206
0.0887,208
0.0887,201
0.0887,192
0.0887,196
0.0999,196
0.0999,195
0.0999,194
0.0999,203
0.0999,208
0.0999,205
0.1018,194
0.1018,195
0.1018,196
0.1018,196
0.1018,193
0.1018,201
0.1037,207
0.1037,207
0.1037,197
0.1037,193
0.1037,196
0.1037,196
0.1037,194
0.1037,197
0.1037,205
0.1037,208
0.1037,201
0.1037,192
0.1037,196
0.1037,196
0.1037,195
0.1037,194
0.1037,203
0.1037,208
0.1037,205
0.1037,194
0.1037,195
0.1037,197
0.1037,195
0.1037,193
0.1037,199
0.1037,206
0.1037,207
0.1037,198
0.1037,193
0.1037,196
0.1037,196
0.1037,194
0.1037,196
0.1037,204
0.1037,208
0.1037,202
0.1037,193
0.1037,196
0.1037,197
0.1037,194
0.1037,193
0.1037,202
0.1037,207
0.1037,205
0.1037,194
0.1037,195
0.1037,197
0.1037,195
0.1037,193
0.1037,199
0.1037,206
0.1037,207
0.1037,198
0.1037,194
0.1037,197
0.1037,196
0.1037,193
0.1037,195
0.1037,204
0.1159,207
0.1159,202
0.1159,193
0.1159,197
0.1159,197
0.1159,194
0.1159,193
0.1159,201
0.1159,207
0.1159,205
0.1159,195
0.1159,196
0.1159,197
0.1185,195
0.1185,192
0.1185,198
0.1185,205
0.1185,207
0.1185,199
0.1185,195
0.1185,197
0.1204,196
0.1204,192
0.1204,195
0.1204,203
0.1204,206
0.1204,202
0.1204,194
0.1204,197
0.1204,196
0.1204,193
0.1204,191
0.1204,201
0.1204,206
0.1204,204
0.1204,195
0.1204,196
0.1204,197
0.1204,195
0.1204,192
0.1204,199
0.1204,206
0.1204,207
0.1204,199
0.1204,196
0.1204,197
0.1204,196
0.1204,192
0.1204,194
0.1204,203
0.1204,207
0.1204,202
0.1204,194
0.1204,197
0.1204,196
0.1204,194
0.1204,192
0.1204,201
0.1204,206
0.1204,205
0.1204,196
0.1204,197
0.1204,197
0.1204,195
0.1204,191
0.1204,198
0.1204,205
0.1204,206
0.1204,199
0.1204,196
0.1204,197
0.1204,196
0.1204,192
0.1204,194
0.1204,203
0.1204,207
0.1204,202
0.132,194
0.132,197
0.1324,196
0.1324,193
0.133,192
0.133,201
0.133,206
0.133,205
0.133,195
0.133,197
0.133,197
0.133,194
0.133,191
0.133,198
0.1352,205
0.1352,206
0.1352,199
0.1352,196
0.1352,197
0.1352,195
0.1352,192
0.1352,195
0.1374,203
0.1374,207
0.1374,202
0.1374,194
0.1374,197
0.1374,196
0.1374,193
0.1374,192
0.1374,201
0.1394,206
0.1394,204
0.1394,195
0.1394,197
0.1394,197
0.1394,194
0.1394,191
0.1394,198
0.1394,205
0.1394,206
0.1394,198
0.1394,196
0.1394,197
0.1394,195
0.1394,192
0.1394,195
0.1394,203
0.1394,207
0.1394,202
0.1394,194
0.1394,197
0.1394,196
0.1394,193
0.1394,192
0.1394,201
0.1394,206
0.1394,204
0.1394,195
0.1394,197
0.1394,197
0.1394,194
0.1394,191
0.1394,198
0.1394,205
0.1394,206
0.1394,198
0.1394,195
0.1394,197
0.1394,195
0.1394,192
0.1479,195
0.1479,204
0.1479,207
0.1479,201
0.1479,194
0.1479,197
0.1479,196
0.1479,193
0.1479,192
0.1479,202
0.1479,206
0.1479,205
0.1479,195
0.1479,197
0.1479,197
0.1479,195
0.1479,191
0.1479,199
0.1479,205
0.1479,206
0.1479,198
0.1479,196
0.1479,197
0.1479,196
0.153,192
0.153,195
0.153,203
0.153,207
0.153,202
0.153,194
0.153,197
0.153,197
0.153,193
0.153,192
0.153,201
0.153,206
0.153,205
0.153,196
0.1561,197
0.1561,197
0.1561,194
0.1561,191
0.1561,199
0.1561,205
0.1561,206
0.1561,198
0.1561,196
0.1561,197
0.1561,195
0.1561,192
0.1561,195
0.1561,203
0.1561,207
0.1561,202
0.1595,194
0.1595,197
0.1595,196
0.1595,193
0.1595,192
0.1595,201
0.1595,206
0.1595,204
0.1595,195
0.1595,197
0.1595,197
0.1595,194
0.1595,191
0.1595,198
0.1595,205
0.1595,206
0.1595,198
0.1595,196
0.1595,197
0.1595,195
0.1595,192
0.1595,195
0.1595,203
0.1595,207
0.1595,201
0.1595,194
0.1595,197
0.1595,196
0.1595,193
0.1595,192
0.1595,201
0.1595,206
0.1595,204
0.1595,195
0.1595,197
0.1595,197
0.1595,194
0.1595,191
0.1595,199
0.1595,205
0.1595,206
0.1595,198
0.1684,196
0.1684,197
0.1684,195
0.1694,192
0.1694,195
0.1694,204
0.1694,207
0.1694,201
0.1694,195
0.1694,197
0.1694,196
0.1694,193
0.1694,192
0.1694,201
0.1694,206
0.1694,204
0.1694,195
0.1694,197
0.1694,197
0.1694,194
0.1694,191
0.1694,199
0.1694,205
0.1694,206
0.1694,198
0.1694,196
0.1694,197
0.1694,195
0.1694,192
0.1694,195
0.1694,204
0.1694,207
0.1694,201
0.1694,195
0.1694,197
0.1694,196
0.1694,193
0.1765,192
0.1765,202
0.1765,206
0.1765,204
0.1765,195
0.1765,197
0.1765,197
0.1765,194
0.1765,191
0.1765,199
0.1765,206
0.1765,206
0.1765,198
0.1765,196
0.1765,197
0.1765,195
0.1765,192
0.1765,195
0.1765,204
0.1765,207
0.1765,201
0.1765,194
0.1805,197
0.1805,196
0.1805,193
0.1805,192
0.1805,201
0.1805,206
0.1805,204
0.1805,195
0.1805,197
0.1805,197
0.1805,194
0.1805,191
0.1805,199
0.1805,205
0.1805,206
0.1805,198
0.1805,196
0.1805,197
0.1805,195
0.1805,192
0.1805,195
0.1805,204
0.1805,207
0.1805,201
0.1805,194
0.1805,197
0.185,196
0.185,193
0.185,192
0.185,202
0.185,206
0.185,204
0.185,195
0.185,197
0.185,197
0.185,194
0.185,191
0.185,199
0.185,205
0.185,206
0.185,198
0.185,196
0.185,197
0.185,196
0.185,192
0.185,196
0.185,204
0.185,207
0.185,201
0.185,195
0.185,197
0.185,196
0.185,193
0.185,192
0.185,202
0.185,206
0.185,204
0.185,195
0.185,197
0.185,197
0.185,194
0.185,191
0.185,199
0.185,205
0.185,206
0.185,198
0.185,196
0.185,197
0.185,195
0.1931,192
0.1931,195
0.1931,204
0.1931,207
0.1931,201
0.1931,194
0.1931,197
0.1931,196
0.1931,193
0.1931,192
0.1931,201
0.1931,206
0.1931,203
0.1931,195
0.1931,196
0.1931,196
0.1931,194
0.1931,190
0.1931,199
0.1931,205
0.1931,206
0.1931,198
0.1931,197
0.1931,198
0.1931,196
0.1931,193
0.1931,196
0.1931,204
0.1931,207
0.1931,201
0.1931,195
0.1931,197
0.1931,196
0.1931,193
0.1931,192
0.1931,202
0.1931,206
0.1931,204
0.1931,195
0.1931,197
0.1931,197
0.1931,194
0.1931,191
0.1931,199
0.1931,205
0.1931,206
0.1931,197
0.1931,196
0.1931,197
0.1931,195
0.1931,192
0.1931,196
0.1931,204
0.1931,207
0.1931,201
0.1931,195
0.1931,197
0.1931,196
0.1931,193
0.1931,192
0.1931,202
0.1931,206
0.1931,204
0.1931,195
0.1931,197
0.2014,196
0.2018,194
0.2018,191
0.2018,199
0.2018,205
0.2018,206
0.2018,197
0.2018,196
0.2018,197
0.2018,195
0.2018,192
0.2018,196
0.2018,204
0.2018,207
0.2018,201
0.2018,195
0.2018,197
0.2018,196
0.2018,193
0.2018,192
0.2018,202
0.2018,206
0.2018,204
0.2018,195
0.2018,197
0.2018,196
0.2018,194
0.2018,191
0.2018,199
0.2018,205
0.2018,205
0.2018,197
0.2018,196
0.2018,197
0.2018,195
0.2018,192
0.2018,196
0.2018,204
0.2018,207
0.2018,201
0.2018,194
0.2018,197
0.2018,196
0.2018,193
0.2018,192
0.2018,202
0.2018,206
0.2018,204
0.2018,195
0.2018,197
0.2018,197
0.2018,194
0.2018,191
0.2018,199
0.2018,205
0.2018,205
0.2018,197
0.2018,196
0.2018,197
0.2018,195
0.2018,191
0.2018,196
0.2018,204
0.2018,207
0.2018,200
0.2018,195
0.2018,197
0.2018,196
0.2018,193
0.2018,193
0.2018,202
0.2018,207
0.2018,203
0.2018,195
0.2018,197
0.2018,197
0.2018,194
0.2018,191
0.2018,199
0.2018,206
0.2018,206
0.2018,197
0.2018,196
0.2018,197
0.2018,195
0.2018,192
0.2018,196
0.2018,204
0.2018,207
0.2018,201
0.2018,195
0.2018,197
0.2018,196
0.2018,193
0.2018,193
0.2018,202
0.2018,207
0.2018,204
0.2018,195
0.2018,197
0.2018,197
0.2018,194
0.2018,191
0.2018,199
0.2018,206
0.2018,205
0.2175,197
0.2175,196
0.2175,197
0.2197,195
0.2197,192
0.2197,196
0.2197,204
0.2197,207
0.2197,200
0.2197,195
0.2197,197
0.2197,196
0.2197,193
0.2197,193
0.2197,202
0.2197,206
0.2197,203
0.2197,195
0.2197,197
0.2197,197
0.2197,194
0.2197,191
0.2197,199
0.2197,205
0.2197,205
0.2197,197
0.2197,196
0.2197,197
0.2197,195
0.2197,191
0.2197,196
0.2197,204
0.2197,207
0.2197,200
0.2197,195
0.2197,197
0.2197,196
0.2197,193
0.2197,193
0.2197,202
0.2197,206
0.2197,203
0.2197,195
0.2197,197
0.2197,196
0.2197,194
0.2197,191
0.2197,199
0.2197,206
0.2197,205
0.2197,197
0.2197,196
0.2197,197
0.2197,195
0.2197,192
0.2197,196
0.2197,204
0.2197,207
0.2197,200
0.2197,195
0.2197,197
0.2197,196
0.2197,193
0.2197,193
0.2197,202
0.2197,206
0.2197,203
0.2197,195
0.2197,197
0.2197,197
0.2197,194
0.2197,191
0.2197,199
0.2197,205
0.2197,205
0.2197,197
0.2197,196
0.2197,197
0.2197,195
0.2197,191
0.2197,196
0.2197,204
0.2197,207
0.2197,200
0.2197,195
0.2197,197
0.2197,196
0.2197,193
0.2337,193
0.2337,202
0.2337,206
0.2337,203
0.2337,194
0.2337,197
0.2337,196
0.2337,194
0.2337,191
0.2337,199
0.2337,205
0.2357,205
0.2357,197
0.2357,196
0.2357,197
0.2357,195
0.2357,192
0.2357,196
0.2357,204
0.2357,206
0.2357,200
0.2357,195
0.2357,197
0.2377,195
0.2377,193
0.2377,192
0.2377,202
0.2377,206
0.2377,203
0.2377,194
0.2377,197
0.2377,197
0.2377,194
0.2377,191
0.2377,199
0.2377,205
0.2377,205
0.2377,196
0.2377,196
0.2377,197
0.2377,195
0.2377,191
0.2377,196
0.2377,204
0.2377,207
0.2377,200
0.2377,195
0.2377,197
0.2377,196
0.2377,192
0.2377,193
0.2377,202
0.2377,206
0.2377,203
0.2377,195
0.2377,197
0.2377,196
0.2377,194
0.2377,191
0.2377,200
0.2377,206
0.2377,205
0.2377,196
0.2377,196
0.2377,197
0.2377,195
0.2377,191
0.2377,197
0.2377,204
0.2377,207
0.2377,200
0.2377,195
0.2377,197
0.2377,196
0.2498,192
0.2514,193
0.2514,202
0.2514,206
0.2514,203
0.2514,195
0.2514,197
0.2514,196
0.2659,194
0.2679,191
0.2679,200
0.2679,206
0.2679,205
0.2679,196
0.2679,196
0.2679,197
0.2818,195
0.2818,191
0.2818,197
0.2818,204
0.2818,206
0.2818,199
0.2818,195
0.2818,197
0.2979,195
0.2979,192
0.2979,193
0.2979,202
0.2979,206
0.2979,202
0.2979,194
0.2979,196
0.3139,196
0.3139,193
0.3139,191
0.3139,200
0.3139,206
0.3139,206
0.3139,197
0.3139,197
0.33,198
0.33,195
0.33,192
0.33,197
0.33,205
0.33,206
0.33,200
0.33,195
0.3459,197
0.3477,196
0.3485,193
0.3514,193
0.3538,203
0.3559,206
0.3579,203
0.3599,194
0.3619,197
0.3639,196
0.3659,194
0.3679,191
0.37,200
0.3719,206
0.3739,205
0.3759,196
0.3779,196
0.3799,197
0.3824,195
0.3824,191
0.3857,197
0.3879,204
0.3899,206
0.3899,200
0.3899,195
0.3899,197
0.3899,196
0.3899,192
0.4018,193
0.4039,202
0.4039,206
0.4039,203
0.4039,194
0.4039,197
0.4039,196
0.4039,194
0.4179,191
0.4179,200
0.4179,206
0.4179,205
0.4179,196
0.4179,196
0.4179,197
0.4179,195
0.438,191
0.438,197
0.438,204
0.44,206
0.44,199
0.44,195
0.44,197
0.44,196
0.4499,192
0.4499,193
0.453,202
0.453,206
0.453,202
0.453,194
0.453,197
0.453,196
0.47,193
0.47,191
0.47,200
0.47,205
0.47,205
0.47,196
0.47,196
0.47,197
0.482,194
0.482,191
0.482,197
0.482,204
0.482,206
0.482,199
0.482,195
0.482,197
0.4979,196
0.4979,193
0.4979,193
0.5032,202
0.5032,206
0.5032,203
0.5032,194
0.5032,197
0.5138,196
0.5138,193
0.5138,191
0.5138,200
0.5138,206
0.5138,205
0.5138,195
0.5138,196
0.5298,197
0.5314,195
0.5333,191
0.536,197
0.538,204
0.5399,206
0.5414,199
0.5434,195
0.5434,197
0.5434,196
0.5434,192
0.5434,193
0.5545,203
0.5545,206
0.5565,202
0.5565,194
0.5565,197
0.5565,196
0.5565,193
0.5689,191
0.5689,200
0.5716,206
0.5736,205
0.5736,196
0.5736,196
0.5736,197
0.5827,195
0.5847,191
0.5857,197
0.5876,205
0.5897,206
0.5897,199
0.5897,195
0.5897,197
0.5897,196
0.5897,193
0.6024,193
0.6042,203
0.6042,207
0.6062,202
0.6062,194
0.6062,197
0.6062,196
0.6062,193
0.617,191
0.6196,200
0.6221,206
0.6242,205
0.6242,196
0.6242,196
0.6242,197
0.6242,195
0.6329,191
0.6355,197
0.6373,205
0.6394,206
0.6394,199
0.6394,195
0.6394,197
0.6394,196
0.6488,192
0.6488,193
0.6545,203
0.6545,206
0.6566,202
0.6566,194
0.6566,197
0.6644,196
0.6644,194
0.669,191
0.669,200
0.6707,206
0.6727,205
0.6727,196
0.6727,196
0.681,197
0.681,195
0.6828,191
0.6859,197
0.6874,204
0.689,206
0.6909,199
0.6909,195
0.6961,197
0.6961,196
0.6961,192
0.7032,194
0.7042,203
0.7055,207
0.7076,202
0.7076,194
0.7076,197
0.7076,196
0.7076,194
0.7192,191
0.7192,200
0.7212,206
0.7233,205
0.7233,196
0.7233,197
0.7233,197
0.7233,194
0.7233,191
0.7358,197
0.7358,204
0.7387,206
0.7407,199
0.7407,195
0.7407,197
0.7407,196
0.7505,192
0.752,193
0.7542,203
0.7563,207
0.7563,202
0.7563,194
0.7563,197
0.7563,196
0.7563,193
0.7666,191
0.7706,200
0.7706,206
0.7726,205
0.7726,195
0.7726,196
0.7726,197
0.7827,195
0.7827,191
0.7857,197
0.7873,205
0.7893,206
0.7893,199
0.7893,195
0.7893,197
0.7985,195
0.7985,192
0.8021,194
0.8036,203
0.8056,206
0.8056,202
0.8056,194
0.8056,197
0.8148,196
0.8154,193
0.8187,191
0.8187,200
0.8204,206
0.8225,204
0.8225,196
0.8225,196
0.8302,197
0.8302,195
0.8302,191
0.8354,197
0.8367,205
0.8387,206
0.8387,199
0.8387,195
0.8463,197
0.8463,195
0.8463,192
0.8522,194
0.8534,203
0.8554,206
0.8554,202
0.8554,194
0.862,197
0.862,196
0.862,193
0.8688,191
0.8703,200
0.8703,206
0.8724,205
0.8744,195
0.8744,196
0.8744,197
0.8744,194
0.8833,191
0.8855,197
0.8874,205
0.8894,206
0.8894,199
0.8894,195
0.8894,197
0.8894,195
0.8894,192
0.9025,194
0.9049,203
0.9049,206
0.9069,202
0.9069,194
0.9069,197
0.9069,196
0.9069,193
0.9189,191
0.9206,200
0.9206,206
0.9206,204
0.9206,196
0.9206,196
0.9206,197
0.9206,194
0.9335,191
0.9362,198
0.9373,205
0.9393,206
0.9393,199
0.9393,195
0.9393,197
0.9393,196
0.9496,192
0.9527,194
0.9541,203
0.9561,206
0.9561,202
0.9561,194
0.9561,197
0.9561,196
0.9657,193
0.9691,191
0.9691,201
0.9716,206
0.9736,204
0.9736,195
0.9736,196
0.9736,197
0.9819,194
0.9836,191
0.9855,197
0.988,205
0.99,206
0.99,199
0.99,195
0.99,197
0.9979,195
0.9979,192
0.9979,193
1.0031,202
1.0044,206
1.0065,201
1.0065,193
1.0065,196
1.0139,195
1.0139,193
1.019,191
1.019,200
1.0209,205
1.023,204
1.023,196
1.023,197
1.0298,197
1.0298,195
1.0298,191
1.0359,198
1.0379,205
1.0399,206
1.0399,199
1.0399,195
1.0458,197
1.0458,196
1.0458,192
1.0531,194
1.0542,203
1.0542,207
1.0565,202
1.0565,194
1.0565,197
1.0565,196
1.0565,193
1.0689,191
1.0689,200
1.0712,206
1.0732,204
1.0732,195
1.0732,196
1.0732,196
1.0732,194
1.0856,191
1.0864,198
1.0876,205
1.0896,206
1.0896,198
1.0896,195
1.0896,197
1.0896,196
1.0896,192
1.1021,194
1.1041,203
1.1061,207
1.1061,202
1.1061,194
1.1061,197
1.1061,196
1.1061,193
1.1169,191
1.1196,200
1.1212,206
1.1233,204
1.1233,195
1.1233,196
1.1233,197
1.1233,194
1.1328,191
1.1364,198
1.138,205
1.1401,206
1.1401,198
1.1401,195
1.1401,197
1.1401,195
1.1488,192
1.1488,194
1.1541,203
1.1541,206
1.1562,201
1.1562,194
1.1562,197
1.1562,196
1.1648,193
1.1688,191
1.1705,201
1.1705,206
1.1725,204
1.1725,195
1.1725,196
1.1725,197
1.1808,194
1.184,191
1.1873,198
1.1873,205
1.1893,206
1.1893,198
1.1893,195
1.1893,197
1.1969,195
1.1969,192
1.2025,194
1.2044,203
1.2044,206
1.2065,201
1.2065,194
1.2065,197
1.2128,196
1.2128,193
1.2188,191
1.22,201
1.22,206
1.22,204
1.22,195
1.22,196
1.2288,197
1.2288,194
1.2288,191
1.2355,198
1.2372,205
1.2393,206
1.2393,198
1.2393,195
1.2446,197
1.2446,195
1.2446,192
1.2522,194
1.2535,203
1.2555,206
1.2555,201
1.2555,194
1.2555,197
1.2555,196
1.2555,193
1.2693,192
1.2693,201
1.2722,206
1.2742,204
1.2762,195
1.2762,197
1.2762,197
1.2762,194
1.2842,191
1.2862,198
1.2875,205
1.2897,206
1.2897,198
1.2897,196
1.2897,197
1.2897,195
1.2999,192
1.3023,195
1.3023,203
1.3059,206
1.3079,201
1.3079,194
1.3079,197
1.3079,196
1.3159,193
1.3191,192
1.3191,201
1.3225,206
1.3225,204
1.3245,195
1.3245,197
1.3245,197
1.3319,194
1.3319,191
1.3359,198
1.3359,205
1.3401,206
1.3401,198
1.3401,195
1.346,197
1.348,195
1.348,192
1.348,195
1.354,203
1.3552,206
1.3579,201
1.3596,194
1.3622,197
1.3622,196
1.3622,193
1.3622,192
1.3697,201
1.3708,206
1.3708,204
1.3756,195
1.3782,196
1.3796,197
1.3815,194
1.3835,191
1.3852,198
1.3852,205
1.3852,206
1.3852,198
1.3852,196
1.3955,197
1.3976,195
1.3976,192
1.4022,195
1.4029,203
1.4029,207
1.4029,201
1.4029,194
1.4114,197
1.4114,196
1.4114,193
1.4114,191
1.4198,201
1.4218,206
1.4218,204
1.4258,195
1.4284,196
1.4284,197
1.4306,194
1.4326,191
1.436,198
1.436,205
1.436,206
1.436,198
1.4441,196
1.4459,197
1.4479,195
1.4499,192
1.4513,195
1.4531,203
1.4531,206
1.4531,201
1.4599,194
1.4599,197
1.4599,196
1.4599,193
1.4599,191
1.4599,201
1.4599,206
1.4599,204
1.476,195
1.4778,197
1.4778,197
1.4778,194
1.4778,191
1.4848,198
1.4848,205
1.4848,206
1.4919,198
1.4939,195
1.4939,197
1.4939,195
1.4939,192
1.4939,195
1.4939,203
1.4939,206
1.5078,201
1.5099,194
1.5099,197
1.5099,196
1.5099,193
1.5099,192
1.5196,201
1.5196,206
1.5239,204
1.5239,195
1.5239,197
1.5239,197
1.5239,194
1.5239,191
1.5239,198
1.5376,205
1.5405,206
1.5419,197
1.5419,196
1.5419,197
1.5419,195
1.5419,192
1.5419,195
1.5419,203
1.556,206
1.5584,201
1.5604,194
1.5619,197
1.5644,196
1.5664,193
1.5678,192
1.5696,201
1.5721,206
1.5721,204
1.5721,195
1.5721,197
1.5721,197
1.5721,194
1.5721,191
1.5851,198
1.5884,205
1.5884,206
1.5884,197
1.5884,195
1.5884,197
1.5884,195
1.5884,192
1.6015,195
1.604,203
1.604,206
1.604,201
1.604,194
1.604,197
1.604,196
1.604,193
1.604,192
1.6201,201
1.6223,206
1.6223,204
1.6223,195
1.6223,197
1.6223,197
1.6223,194
1.6223,191
1.6361,199
1.6383,205
1.6383,206
1.6383,198
1.6383,196
1.6383,197
1.6383,195
1.6383,192
1.652,195
1.652,203
1.652,207
1.652,201
1.652,195
1.652,197
1.652,196
1.652,193
1.668,192
1.668,201
1.668,206
1.668,204
1.668,195
1.668,197
1.668,197
1.668,194
1.6842,191
1.6852,199
1.6863,205
1.6863,206
1.6863,197
1.6863,196
1.6863,197
1.6863,195
1.7001,191
1.7001,195
1.7029,203
1.7029,206
1.7029,200
1.7029,194
1.7029,196
1.7029,195
1.7163,192
1.7178,191
1.7178,201
1.7178,205
1.7178,203
1.7178,194
1.7178,196
1.7178,196
1.7322,194
1.7344,190
1.7344,199
1.7384,206
1.7394,206
1.7394,198
1.7394,197
1.7394,198
1.7484,196
1.7504,192
1.7515,195
1.7515,203
1.7515,207
1.7515,201
1.7515,194
1.7515,197
1.7645,196
1.7645,193
1.7645,192
1.7645,201
1.7645,206
1.7645,204
1.7645,195
1.7645,197
1.7804,197
1.7804,194
1.7804,191
1.7853,199
1.7853,205
1.7853,205
1.7853,197
1.7853,196
1.7972,197
1.7972,195
1.8002,191
1.8016,195
1.8016,203
1.8016,206
1.8016,200
1.8016,194
1.8124,197
1.8145,196
1.8164,193
1.818,192
1.818,201
1.818,206
1.818,203
1.818,195
1.8285,196
1.8285,197
1.8285,194
1.8285,191
1.8285,199
1.8285,205
1.8285,205
1.8285,197
1.8446,196
1.8458,197
1.8484,195
1.8504,191
1.8514,195
1.8514,203
1.8514,206
1.8514,200
1.8606,194
1.8624,197
1.8644,196
1.8664,193
1.8682,192
1.8682,201
1.8724,206
1.8724,203
1.8765,195
1.8784,197
1.8804,197
1.8824,194
1.8824,191
1.8857,199
1.8857,205
1.8857,205
1.8925,197
1.8944,196
1.8944,197
1.8944,195
1.8944,191
1.8944,195
1.8944,203
1.8944,206
1.9083,200
1.9083,194
1.9083,197
1.9083,196
1.9083,193
1.9083,192
1.9083,201
1.9083,206
1.9243,203
1.9259,195
1.9264,197
1.9303,196
1.9323,194
1.9342,190
1.936,199
1.9383,205
1.9403,205
1.9423,197
1.9443,196
1.946,197
1.9483,195
1.9503,192
1.9503,196
1.9531,204
1.9531,206
1.9531,200
1.9531,194
1.9531,197
1.9531,196
1.9531,193
1.9685,192
1.9685,201
1.9706,206
1.9726,203
1.9726,195
1.9726,197
1.9726,197
1.9726,194
1.9846,191
1.9858,199
1.9858,205
1.9858,205
1.9858,197
1.9858,196
1.9858,197
1.9858,195
2.0006,192
2.0006,196
2.0026,204
2.0026,207
2.0026,200
2.0026,194
2.0026,197
2.0026,196
2.0166,193
2.0166,192
2.0166,202
2.0166,206
2.0166,203
2.0166,195
2.0166,197
2.0166,196
2.0325,194
2.034,191
2.0351,199
2.0384,205
2.0407,205
2.0419,197
2.0439,196
2.0439,197
2.0484,195
2.0484,191
2.0517,196
2.0517,204
2.0517,206
2.0517,200
2.0517,194
2.0517,197
2.0641,195
2.0658,192
2.0678,192
2.0678,201
2.0678,206
2.0678,203
2.0678,195
2.0678,197
2.0799,196
2.0818,194
2.0818,191
2.0862,199
2.0862,205
2.0862,205
2.0862,197
2.0862,196
2.0959,197
2.0959,195
2.0959,191
2.0959,196
2.1032,204
2.1032,206
2.1032,200
2.1032,195
2.1119,197
2.1139,196
2.1158,193
2.1179,192
2.1179,201
2.1179,206
2.1179,203
2.1179,194
2.1279,197
2.1299,197
2.1299,194
2.1299,191
2.1299,199
2.1299,205
2.1299,205
2.1299,197
2.1439,196
2.1439,197
2.1439,195
2.1439,191
2.1439,196
2.1531,203
2.1531,206
2.1531,200
2.1603,195
2.161,197
2.161,196
2.161,193
2.161,192
2.1696,202
2.1696,206
2.1696,203
2.1759,194
2.1783,197
2.1804,196
2.1824,194
2.1824,191
2.1863,199
2.1863,205
2.1863,205
2.1917,196
2.1944,196
2.1964,197
2.1964,195
2.1964,191
2.1964,196
2.1964,204
2.1964,206
2.2078,200
2.2078,195
2.2123,197
2.2144,196
2.2164,192
2.2179,193
2.2179,202
2.2179,206
2.2237,203
2.2263,194
2.2284,197
2.2304,196
2.2324,194
2.2342,191
2.2342,199
2.2384,205
2.2396,205
2.2424,196
2.2424,196
2.2424,197
2.2424,195
2.2424,191
2.2424,196
2.2424,204
2.2558,206
2.2558,200
2.2558,195
2.2624,197
2.2644,196
2.2644,192
2.2644,193
2.2644,202
2.2719,206
2.2719,203
2.2719,195
2.2719,197
2.2719,197
2.2719,194
2.2719,191
2.2864,199
2.288,205
2.288,205
2.288,196
2.288,196
2.288,197
2.288,195
2.288,191
2.3021,196
2.3039,204
2.3064,206
2.3064,199
2.3064,195
2.3064,197
2.3064,196
2.3064,193
2.3064,193
2.3196,202
2.3196,206
2.3196,203
2.3196,194
2.3196,197
2.3196,197
2.3196,194
2.3196,191
2.3357,199
2.3357,205
2.3357,205
2.3357,196
2.3357,196
2.3357,197
2.3357,195
2.3357,191
2.3518,196
2.3539,204
2.3564,206
2.3584,200
2.3604,195
2.3624,197
2.3644,196
2.3664,193
2.3679,193
2.3697,202
2.3724,206
2.3744,203
2.3764,195
2.3784,197
2.3804,196
2.3824,194
2.3841,191
2.3841,199
2.3884,205
2.3904,205
2.3924,196
2.3944,196
2.3964,197
2.3984,195
2.4004,191
2.4013,196
2.4013,204
2.4013,206
2.4089,200
2.4089,195
2.4089,197
2.4089,196
2.4163,192
2.4163,193
2.4195,202
2.4195,206
2.4195,202
2.4195,194
2.4195,197
2.4195,196
2.4323,193
2.4342,190
2.4342,199
2.4384,205
2.4404,204
2.4424,195
2.4444,195
2.4464,196
2.4484,194
2.4484,191
2.4484,196
2.4484,204
2.4484,207
2.4484,200
2.4484,195
2.4484,198
2.4645,196
2.4657,193
2.4679,193
2.4701,202
2.4724,206
2.4744,202
2.4764,194
2.4784,197
2.4804,196
2.4821,194
2.4821,191
2.4821,200
2.4866,205
2.4866,205
2.4866,196
2.4866,196
2.4962,197
2.4982,195
2.5002,191
2.503,196
2.503,204
2.503,206
2.503,199
2.503,195
2.5124,197
2.5124,196
2.5124,192
2.5124,193
2.5124,202
2.5124,206
2.5124,202
2.5124,194
2.5284,197
2.5284,196
2.5284,194
2.5284,191
2.5284,199
2.5284,205
2.5284,205
2.5284,196
2.5444,196
2.546,197
2.5484,195
2.5504,191
2.5512,196
2.5544,204
2.5564,206
2.5584,199
2.5604,195
2.5624,197
2.5631,196
2.5631,192
2.5631,193
2.5631,202
2.5631,206
2.5631,203
2.5762,194
2.5762,197
2.5762,196
2.5762,193
2.5762,191
2.5762,199
2.5879,205
2.5904,205
2.5924,196
2.5944,196
2.5964,197
2.5984,195
2.6004,191
2.6016,196
2.6016,204
2.6016,206
2.6084,199
2.6084,195
2.6084,197
2.6084,196
2.6084,192
2.6084,193
2.6084,202
2.6084,206
2.6084,202
2.6255,194
2.6255,197
2.6255,196
2.6255,194
2.6255,191
2.6255,200
2.6365,205
2.6404,205
2.6424,196
2.6436,196
2.6436,197
2.6436,195
2.6436,191
2.6436,197
2.6436,204
2.6566,206
2.6566,199
2.6587,195
2.6607,197
2.6632,195
2.6653,192
2.6697,193
2.6697,202
2.6697,206
2.6725,202
2.6725,194
2.6725,197
2.6725,196
2.6725,193
2.6725,191
2.6725,200
2.687,205
2.6885,205
2.6905,196
2.6905,196
2.6905,197
2.6905,195
2.6905,191
2.6905,197
2.6905,204
2.7064,206
2.7084,199
2.7104,195
2.7124,197
2.7144,196
2.7144,192
2.7144,193
2.7144,203
2.7224,206
2.7238,203
2.7264,194
2.7284,197
2.7304,197
2.7304,194
2.7304,191
2.7304,200
2.7383,206
2.7399,205
2.7424,196
2.7444,196
2.7464,197
2.7484,195
2.7504,191
2.7515,197
2.7541,204
2.7541,206
2.7541,199
2.7541,195
2.7541,197
2.7541,196
2.7541,192
2.7541,193
2.7703,202
2.7724,206
2.7724,202
2.7724,194
2.7724,197
2.7724,196
2.7724,194
2.7724,191
2.7862,200
2.7875,205
2.7875,205
2.7875,196
2.7875,196
2.7875,197
2.7875,194
2.7875,191
2.802,197
2.8038,204
2.8064,206
2.8064,199
2.8064,195
2.8064,197
2.8064,196
2.8064,192
2.818,193
2.8201,202
2.8221,206
2.8241,202
2.8261,194
2.8281,197
2.8301,196
2.8321,193
2.8339,191
2.8339,200
2.8339,205
2.8398,205
2.8398,195
2.8398,196
2.8398,197
2.8398,195
2.8499,191
2.8513,197
2.8538,205
2.8558,206
2.8578,199
2.8598,195
2.8618,197
2.8638,195
2.8658,192
2.8678,193
2.8678,202
2.8718,206
2.8738,202
2.8738,194
2.8738,197
2.8738,196
2.8815,193
2.8815,191
2.8815,200
2.8878,205
2.8878,205
2.8878,196
2.8878,196
2.8878,197
2.8978,195
2.9004,191
2.9004,197
2.9004,205
2.9004,206
2.9004,199
2.9004,195
2.9004,197
2.9138,195
2.9138,192
2.9138,194
2.9138,203
2.9138,206
2.9138,202
2.9138,194
2.9138,197
2.9297,196
2.9324,193
2.9342,191
2.9342,200
2.9384,206
2.9384,204
2.9384,195
2.9384,196
2.9457,197
2.9484,195
2.9484,191
2.9484,197
2.9484,205
2.9484,206
2.9484,199
2.9484,195
2.9618,197
2.9618,196
2.9618,192
2.9618,193
2.9699,203
2.9699,206
2.9699,202
2.9699,194
2.9777,197
2.9804,196
2.9804,193
2.9804,191
2.9804,200
2.9882,205
2.9882,204
2.9882,195
2.9938,196
2.9959,197
2.9959,194
3.0004,191
3.0013,197
3.0039,204
3.0064,206
3.0084,199
3.0104,195
3.0119,197
3.0146,196
3.0146,192
3.0146,194
3.0198,203
3.0198,206
3.0198,202
3.0198,194
3.0198,197
3.0198,196
3.0198,193
3.0198,191
3.0355,200
3.0355,206
3.0355,204
3.0355,195
3.0355,196
3.0355,197
3.0355,194
3.0355,191
3.0514,197
3.0539,205
3.0564,206
3.0584,198
3.0604,195
3.0624,197
3.0624,195
3.0624,192
3.0671,194
3.0698,203
3.0724,206
3.0744,202
3.0764,194
3.0784,197
3.0804,196
3.0824,193
3.0824,191
3.0824,200
3.0884,206
3.0898,204
3.0898,195
3.0898,196
3.0898,197
3.0984,194
3.0984,191
3.0984,198
3.0984,205
3.0984,206
3.0984,199
3.0984,195
3.0984,197
3.1143,195
3.1164,192
3.1179,194
3.1198,203
3.1224,206
3.1224,202
3.1224,194
3.1224,197
3.1303,196
3.1319,193
3.1342,191
3.1342,200
3.1342,205
3.1342,204
3.1342,195
3.1342,196
3.1463,196
3.1484,194
3.1504,190
3.1504,197
3.1504,204
3.1504,206
3.1504,198
3.1504,195
3.1623,197
3.1623,196
3.1623,193
3.1623,195
3.1623,204
3.1623,207
3.1623,202
3.1623,194
3.1783,197
3.1802,196
3.1824,193
3.1824,191
3.1824,201
3.1885,206
3.1885,204
3.1885,195
3.1945,196
3.1945,197
3.1945,195
3.1945,191
3.1945,198
3.1945,205
3.1945,206
3.1945,198
3.2104,195
3.2117,197
3.2144,195
3.2164,192
3.2179,194
3.2179,203
3.2179,206
3.2179,202
3.2265,194
3.2265,197
3.2265,196
3.2265,193
3.2265,191
3.2265,201
3.2265,206
3.2265,204
3.2424,196
3.2439,196
3.2439,197
3.2439,194
3.2439,191
3.2439,198
3.2439,205
3.2439,206
3.2581,198
3.2581,195
3.2581,197
3.2581,195
3.2581,191
3.2581,194
3.2581,203
3.2581,206
3.274,201
3.2764,194
3.2764,197
3.2764,196
3.2764,193
3.2764,191
3.2764,201
3.2887,206
3.2899,204
3.2899,195
3.2899,196
3.2899,197
3.2899,194
3.2899,191
3.2899,198
3.2899,205
3.3061,206
3.3084,198
3.3104,195
3.3124,197
3.3144,195
3.3164,192
3.3181,194
3.3181,203
3.3221,206
3.3244,201
3.3264,194
3.3284,197
3.3304,196
3.3324,193
3.3342,191
3.3342,200
3.3381,206
3.3404,204
3.3424,195
3.3444,196
3.3464,197
3.3484,194
3.3484,191
3.3484,198
3.3542,205
3.3542,206
3.3542,198
3.3542,195
3.3542,197
3.3542,195
3.3542,191
3.3542,194
3.3701,203
3.3719,206
3.3744,201
3.3764,194
3.3784,197
3.3804,196
3.3824,193
3.3824,191
3.3861,200
3.3879,206
3.3909,204
3.3924,195
3.3944,196
3.3964,197
3.3984,194
3.4004,191
3.4015,198
3.4015,205
3.4015,206
3.4015,198
3.4015,195
3.4015,197
3.4015,195
3.4015,192
3.4173,194
3.4192,203
3.4221,207
3.424,201
3.4259,194
3.4279,197
3.4298,196
3.4298,193
3.4332,192
3.4352,201
3.437,206
3.437,204
3.437,195
3.437,196
3.437,197
3.437,194
3.4498,191
3.4516,198
3.4534,205
3.4534,206
3.4534,198
3.4534,195
3.4534,197
3.4534,195
3.4649,192
3.4649,195
3.4649,203
3.4649,206
3.4649,201
3.4649,194
3.4649,197
3.4649,196
3.4813,193
3.4836,192
3.4836,201
3.4836,206
3.4836,204
3.4906,195
3.4906,196
3.4906,197
3.4971,194
3.4971,191
3.4971,198
3.5034,205
3.5034,206
3.5034,198
3.5034,195
3.5034,197
3.5129,195
3.5161,192
3.5167,195
3.5197,203
3.5219,206
3.5239,201
3.5259,194
3.5279,197
3.5299,196
3.5319,193
3.5333,191
3.5366,201
3.5366,205
3.5366,204
3.5366,195
3.5366,196
3.5465,197
3.5472,194
3.5472,191
3.5472,198
3.5531,205
3.5531,206
3.5531,198
3.5531,195
3.5618,197
3.5641,195
3.5641,192
3.5641,194
3.5641,203
3.5641,206
3.5641,201
3.5641,194
3.5779,197
3.5779,196
3.5779,193
3.5779,192
3.5779,201
3.5779,206
3.5908,204
3.5908,195
3.594,196
3.594,197
3.594,194
3.594,191
3.6021,198
3.6021,205
3.6021,206
3.6021,198
3.61,195
3.6124,197
3.6138,195
3.6164,192
3.6179,195
3.6179,203
3.6223,206
3.6223,201
3.6259,194
3.6284,197
3.6284,196
3.6284,193
3.6284,192
3.6284,201
3.6284,206
3.6284,204
3.642,195
3.6438,197
3.6464,197
3.6478,194
3.6478,191
3.6478,198
3.6478,205
3.6478,206
3.6579,197
3.6579,195
3.6579,197
3.6579,195
3.6579,192
3.6579,195
3.6579,203
3.6579,206
3.6737,201
3.6737,194
3.6737,197
3.6737,196
3.6737,193
3.6737,191
3.6737,201
3.6737,206
3.6898,204
3.6929,195
3.6939,196
3.6964,197
3.6979,194
3.7004,191
3.7021,198
3.7021,205
3.7058,206
3.7084,198
3.7104,195
3.7124,197
3.7124,195
3.7124,192
3.7124,195
3.7124,203
3.7218,206
3.7218,201
3.7218,194
3.7218,197
3.7218,196
3.7218,193
3.7218,192
3.7218,201
3.7377,206
3.7406,204
3.7426,195
3.7444,197
3.7466,197
3.7484,194
3.7506,191
3.7506,198
3.7539,205
3.7539,206
3.7539,197
3.7539,195
3.7539,197
3.7539,195
3.7539,192
3.7539,195
3.7698,203
3.7698,207
3.7698,201
3.7698,194
3.7698,197
3.7698,196
3.7698,193
3.7698,191
3.7857,201
3.7884,206
3.79,204
3.7927,195
3.7927,196
3.7927,197
3.7927,194
3.7927,191
3.8017,199
3.8017,205
3.8017,206
3.8017,198
3.8017,196
3.8017,197
3.8017,195
3.8017,192
3.818,195
3.8199,203
3.8226,206
3.8246,201
3.8246,194
3.8246,197
3.8246,196
3.8246,193
3.8338,192
3.8338,201
3.8366,206
3.8366,204
3.8366,195
3.8366,196
3.8366,196
3.8366,194
3.8499,190
3.8499,198
3.8499,205
3.8499,205
3.8499,197
3.8499,195
3.8499,196
3.8499,194
3.8659,191
3.8679,194
3.8679,203
3.8724,206
3.8724,200
3.8724,194
3.8724,197
3.8724,196
3.8822,194
3.8822,192
3.8822,202
3.8822,206
3.8822,204
3.8926,195
3.8926,197
3.8926,197
3.8983,194
3.9006,191
3.9015,198
3.9048,205
3.9048,206
3.9048,197
3.9048,196
3.9048,197
3.9144,195
3.916,192
3.916,195
3.916,203
3.916,207
3.916,200
3.916,194
3.916,197
3.9303,196
3.9303,193
3.9303,192
3.9303,201
3.9303,206
3.9303,204
3.9303,195
3.9303,196
3.9463,197
3.9484,194
3.9504,191
3.9512,199
3.9544,205
3.9544,206
3.9544,197
3.9544,196
3.9622,197
3.9646,195
3.9664,192
3.9681,195
3.9681,203
3.9681,206
3.9681,201
3.9681,194
3.9783,197
3.98,196
3.98,193
3.98,192
3.98,201
3.98,206
3.98,203
3.9926,195
3.9944,196
3.9944,196
3.9944,194
3.9944,191
3.9944,199
3.9944,205
3.9944,205
3.9944,197
4.0105,196
4.0105,197
4.0138,195
4.0164,192
4.0181,195
4.0181,203
4.0224,206
4.0244,200
4.0264,194
4.0284,197
4.0304,196
4.0304,193
4.0304,192
4.0304,201
4.0304,206
4.0304,203
4.0424,195
4.0437,197
4.0444,197
4.0464,194
4.0464,191
4.0464,199
4.0539,205
4.0564,205
4.0584,197
4.0604,196
4.0624,197
4.0644,195
4.0664,191
4.0682,195
4.0694,203
4.0694,206
4.0694,200
4.0694,194
4.0783,197
4.0804,196
4.0819,193
4.0819,192
4.0819,201
4.0819,206
4.0819,203
4.0819,195
4.0944,196
4.0964,196
4.0984,194
4.1004,191
4.1012,199
4.1044,205
4.1064,205
4.1084,197
4.1104,196
4.1124,197
4.1144,195
4.1164,191
4.1179,195
4.1179,203
4.1179,206
4.1179,200
4.1263,194
4.1263,197
4.1263,196
4.1263,193
4.1263,192
4.1263,201
4.1263,206
4.1263,203
4.1422,195
4.1444,197
4.1464,197
4.1484,194
4.1504,191
4.1504,199
4.1504,205
4.1504,205
4.1582,197
4.1604,196
4.1624,197
4.1624,195
4.1624,191
4.1624,196
4.1624,204
4.1624,206
4.1741,200
4.1741,195
4.1741,197
4.1741,196
4.1741,193
4.1741,192
4.1741,201
4.1741,206
4.19,203
4.1924,195
4.1949,197
4.1964,197
4.1964,194
4.1964,191
4.1964,199
4.1964,205
4.2062,205
4.2084,197
4.2104,196
4.2124,197
4.2124,195
4.2124,191
4.2124,196
4.2124,204
4.2223,206
4.2223,200
4.2264,194
4.2284,197
4.2284,196
4.2284,192
4.2284,192
4.2284,201
4.2383,206
4.2404,203
4.2424,195
4.2444,196
4.2464,196
4.2484,194
4.2504,191
4.2512,199
4.2544,205
4.2564,205
4.2564,197
4.2564,196
4.2564,197
4.2564,195
4.2564,191
4.2564,196
4.2703,203
4.2703,206
4.2703,200
4.2703,194
4.2703,197
4.2703,196
4.2703,193
4.2703,192
4.2861,202
4.2878,206
4.2878,203
4.2878,195
4.2946,197
4.2946,196
4.2946,194
4.2946,191
4.3021,199
4.3021,205
4.3021,205
4.3021,196
4.3021,196
4.3021,197
4.3021,195
4.3021,191
4.3182,196
4.3198,204
4.3224,207
4.3224,200
4.3224,194
4.3224,197
4.3224,196
4.3224,193
4.3342,192
4.3342,202
4.3383,206
4.3383,203
4.3383,195
4.3383,197
4.3383,196
4.3383,194
4.3503,191
4.3514,199
4.3544,205
4.3564,205
4.3584,197
4.3604,196
4.3624,197
4.3644,195
4.3664,191
4.3679,196
4.3679,204
4.3679,206
4.3679,200
4.3679,195
4.3679,197
4.3679,196
4.3822,193
4.3822,192
4.3822,202
4.3822,206
4.3822,203
4.3822,195
4.3946,197
4.3964,196
4.3984,194
4.4004,191
4.4013,199
4.4044,205
4.4064,205
4.4084,196
4.4104,196
4.4104,197
4.4142,195
4.4164,191
4.4164,196
4.4164,204
4.4164,206
4.4164,200
4.4164,195
4.4164,197
4.4303,196
4.4303,193
4.4303,193
4.4303,202
4.4303,206
4.4303,203
4.4303,194
4.4303,197
4.4462,196
4.4486,194
4.4506,191
4.4515,199
4.4515,205
4.4515,205
4.4515,196
4.4515,196
4.4624,197
4.4624,195
4.4624,191
4.4624,196
4.4624,204
4.4624,206
4.4624,200
4.4624,195
4.4784,197
4.4784,196
4.4784,192
4.4784,192
4.4784,202
4.4784,206
4.4784,203
4.4784,195
4.4949,197
4.4949,196
4.4949,194
4.4949,191
4.4949,199
4.4949,205
4.4949,205
4.4949,196
4.5105,196
4.5118,197
4.5137,195
4.5137,191
4.5137,196
4.5137,204
4.5137,206
4.5137,200
4.5264,195
4.5264,197
4.5264,196
4.5264,193
4.5264,193
4.5264,202
4.5264,206
4.5264,203
4.5424,194
4.5424,197
4.5463,196
4.5482,193
4.5501,191
4.5519,199
4.5539,205
4.5551,205
4.5583,196
4.5583,196
4.5583,197
4.5583,195
4.5583,191
4.5583,196
4.5583,204
4.5583,206
4.5743,200
4.576,195
4.577,197
4.5799,195
4.5799,192
4.5799,193
4.5863,202
4.5878,206
4.5899,202
4.5918,194
4.5949,196
4.5949,196
4.5979,193
4.5998,190
4.6021,199
4.6037,205
4.6037,204
4.6037,196
4.6037,196
4.6037,197
4.6037,195
4.6037,192
4.6181,197
4.6201,205
4.6219,207
4.6239,200
4.6239,195
4.6239,197
4.6239,196
4.6239,193
4.6339,193
4.6359,202
4.6359,206
4.6359,203
4.6359,194
4.6359,197
4.6359,197
4.6359,194
4.6498,191
4.6513,199
4.6531,205
4.6559,205
4.6579,196
4.6599,196
4.6619,197
4.6639,195
4.6659,191
4.6659,196
4.6659,204
4.6659,206
4.6659,199
4.6659,195
4.6659,197
4.6659,196
4.6818,192
4.6818,193
4.6818,202
4.6818,206
4.6818,203
4.6818,194
4.6818,196
4.6953,196
4.6978,193
4.7004,191
4.7013,199
4.7039,205
4.7064,205
4.7084,196
4.7104,196
4.7124,197
4.7144,195
4.7157,191
4.7157,196
4.7157,204
4.7157,206
4.7157,199
4.7157,195
4.7157,197
4.7311,196
4.7316,192
4.734,193
4.734,202
4.734,206
4.734,203
4.734,194
4.734,197
4.7466,196
4.7466,193
4.7504,191
4.7512,199
4.7512,205
4.7512,205
4.7512,196
4.7512,196
4.7626,197
4.7644,195
4.7664,191
4.7681,196
4.7681,204
4.7724,206
4.7744,199
4.7764,195
4.7784,197
4.7804,195
4.7824,192
4.7847,193
4.7863,202
4.7875,206
4.7893,203
4.7924,194
4.7943,197
4.7962,196
4.7962,193
4.7962,191
4.7962,199
4.7962,205
4.7962,205
4.7962,196
4.7962,196
4.8104,197
4.8104,195
4.8104,191
4.8104,196
4.8104,204
4.8104,206
4.8104,199
4.8264,195
4.8264,197
4.8299,195
4.8299,192
4.8299,193
4.8357,202
4.8357,206
4.8357,202
4.8423,194
4.8423,197
4.8423,196
4.8423,193
4.8423,191
4.8423,199
4.8531,205
4.8531,205
4.8584,196
4.8599,196
4.8619,197
4.8639,195
4.8639,191
4.8639,197
4.8639,204
4.8639,206
4.8744,199
4.8759,195
4.8779,197
4.8799,196
4.8819,193
4.8819,193
4.8819,202
4.8819,206
4.8904,202
4.8904,194
4.8904,197
4.8958,196
4.8958,194
4.8958,191
4.8958,200
4.903,205
4.9065,205
4.9079,196
4.91,196
4.91,197
4.91,195
4.9171,191
4.9171,197
4.9171,204
4.9228,206
4.9244,199
4.9244,195
4.9244,197
4.9244,196
4.9244,192
4.9244,193
4.9244,202
4.9378,206
4.9378,203
4.9378,194
4.9378,197
4.9378,196
4.9378,194
4.9378,191
4.9378,199
4.9541,205
4.9541,205
4.9541,196
4.9541,196
4.9541,197
4.9541,195
4.9541,191
4.9541,197
4.9701,204
4.9724,206
4.9744,199
4.9764,195
4.9764,197
4.9764,196
4.9764,192
4.9764,193
4.986,202
4.9884,206
4.9904,202
4.9924,194
4.9944,197
4.9969,196
4.9984,193
5.0004,191
5.0014,200
5.0044,205
5.0064,205
5.0084,195
5.0104,196
5.0124,197
5.0144,195
5.0164,191
5.0181,197
5.0181,204
5.0224,206
5.0224,199
5.0224,195
5.0224,197
5.0224,196
5.0324,192
5.0338,193
5.0356,202
5.0356,206
5.0356,202
5.0356,194
5.0356,197
5.0356,196
5.0483,194
5.0483,191
5.0483,200
5.0483,206
5.0483,205
5.0483,196
5.0483,196
5.0483,197
5.0642,195
5.0642,191
5.0642,197
5.0642,204
5.0642,206
5.0642,199
5.0642,195
5.0642,197
5.0808,195
5.0819,192
5.0837,193
5.0857,202
5.0881,206
5.0902,202
5.0919,194
5.0926,197
5.0926,196
5.098,194
5.098,191
5.098,200
5.1033,205
5.1033,205
5.1033,195
5.1033,196
5.1124,197
5.1135,195
5.1144,191
5.1144,197
5.1198,204
5.1224,206
5.1244,199
5.1266,195
5.1286,197
5.1306,196
5.1324,192
5.1342,193
5.1364,203
5.1364,206
5.1364,202
5.1364,194
5.1364,197
5.1465,196
5.1465,194
5.1465,191
5.1465,200
5.1531,206
5.1531,204
5.1531,196
5.1531,196
5.1626,197
5.164,194
5.1666,191
5.1681,197
5.1681,204
5.1724,206
5.1724,199
5.1724,195
5.1785,197
5.1785,195
5.1809,192
5.1809,193
5.1809,202
5.1809,206
5.1809,202
5.1809,194
5.1945,197
5.1945,196
5.1967,193
5.1967,191
5.1967,200
5.1967,205
5.1967,204
5.1967,195
5.2106,196
5.2124,197
5.2144,195
5.2164,191
5.2179,197
5.2198,204
5.2224,206
5.2244,199
5.2264,195
5.2284,197
5.2304,195
5.2324,192
5.2341,193
5.2341,203
5.2341,206
5.2341,202
5.2425,194
5.2439,197
5.2439,196
5.2439,193
5.2439,191
5.2439,200
5.2439,205
5.2439,204
5.2584,195
5.2584,196
5.2584,197
5.2584,194
5.2584,191
5.2584,197
5.2584,204
5.2584,206
5.2742,199
5.2754,195
5.2774,197
5.2806,195
5.2824,192
5.2824,193
5.2824,202
5.2824,206
5.2903,202
5.2924,194
5.2944,197
5.2969,196
5.2984,193
5.3004,191
5.3014,200
5.3044,205
5.3064,204
5.3084,195
5.3084,196
5.3084,197
5.3084,195
5.3084,191
5.3084,197
5.3084,204
5.3224,206
5.3224,198
5.3224,195
5.3224,196
5.3224,195
5.3224,191
5.3224,193
5.3224,202
5.3383,205
5.3404,201
5.3424,193
5.3444,196
5.3444,195
5.3444,193
5.3444,191
5.3444,200
5.3544,206
5.356,205
5.3584,196
5.3604,197
5.3624,197
5.3644,195
5.3664,191
5.3681,197
5.3681,205
5.3724,206
5.3744,199
5.3764,195
5.3789,197
5.3804,195
5.3824,192
5.3824,194
5.3824,203
5.3883,206
5.3904,202
5.3924,194
5.3944,197
5.3964,196
5.3989,193
5.4004,191
5.4014,200
5.4045,206
5.4045,204
5.4045,195
5.4045,196
5.4045,197
5.4045,195
5.4045,191
5.4045,197
5.4045,204
5.4224,206
5.4244,199
5.4264,195
5.4284,197
5.4284,195
5.4284,192
5.4284,194
5.4362,203
5.4362,206
5.4362,202
5.4362,194
5.4362,197
5.4362,196
5.4362,193
5.4362,191
5.4521,200
5.4521,205
5.4521,204
5.4521,195
5.4521,196
5.4521,197
5.4521,194
5.4521,191
5.4681,197
5.4681,205
5.4681,206
5.4681,198
5.4681,195
5.4681,197
5.4681,195
5.4681,192
5.4842,194
5.4842,203
5.4884,206
5.4904,201
5.4924,194
5.4944,197
5.4964,196
5.4989,193
5.5004,191
5.5012,200
5.5044,205
5.5064,204
5.5084,195
5.5104,196
5.5124,197
5.5144,194
5.5164,191
5.5179,197
5.5198,204
5.5224,206
5.5224,198
5.5224,195
5.5224,197
5.5224,195
5.5323,192
5.5323,194
5.5363,203
5.5384,206
5.5384,201
5.5384,193
5.5384,197
5.5384,196
5.5483,193
5.5483,191
5.5514,200
5.5514,206
5.5514,204
5.5514,195
5.5514,196
5.5514,197
5.5643,194
5.5643,191
5.5643,198
5.5643,204
5.5643,206
5.5643,198
5.5643,195
5.5643,197
5.5804,195
5.5804,192
5.5804,194
5.5804,203
5.5804,206
5.5804,201
5.5804,194
5.5804,197
5.5962,196
5.5989,193
5.6004,191
5.6015,201
5.6015,206
5.6015,204
5.6015,195
5.6015,196
5.6124,197
5.6144,194
5.6164,191
5.6181,198
5.6181,205
5.6224,206
5.6244,198
5.6244,195
5.6286,197
5.6286,195
5.6286,192
5.6286,194
5.6286,203
5.6286,206
5.6286,201
5.6286,194
5.6446,197
5.6458,196
5.6478,193
5.6504,191
5.6512,201
5.6539,206
5.6564,204
5.6584,195
5.6604,196
5.6614,197
5.6641,194
5.6661,191
5.6699,198
5.6699,205
5.672,206
5.674,198
5.676,195
5.6779,197
5.6804,195
5.6824,192
5.6824,194
5.6857,203
5.6884,206
5.6904,201
5.6924,194
5.6938,197
5.6958,196
5.6958,193
5.699,191
5.7016,201
5.7016,206
5.7016,204
5.7016,195
5.7016,196
5.7016,197
5.7016,194
5.7016,191
5.7174,198
5.7174,205
5.7218,206
5.7238,198
5.7258,195
5.7278,197
5.7298,195
5.7318,192
5.7338,194
5.7366,203
5.7378,206
5.7378,201
5.7378,194
5.7378,197
5.7378,196
5.7378,193
5.7501,192
5.7501,200
5.7501,205
5.7501,204
5.7501,195
5.7501,196
5.7501,197
5.7501,194
5.7663,191
5.7663,198
5.7663,205
5.7663,206
5.7663,198
5.7663,195
5.7663,197
5.7663,195
5.7823,192
5.7823,195
5.7863,203
5.7863,206
5.7863,201
5.7863,194
5.7863,197
5.7863,196
5.7989,193
5.7998,192
5.8016,201
5.8039,206
5.8039,204
5.8039,195
5.8039,196
5.8039,197
5.8142,194
5.8142,191
5.8142,198
5.8142,205
5.8142,206
5.8142,198
5.8142,195
5.8142,197
5.8302,195
5.8302,192
5.8302,195
5.8302,203
5.8302,206
5.8302,201
5.8302,194
5.8302,197
5.8462,196
5.8462,193
5.8462,192
5.8462,201
5.8462,206
5.8462,204
5.8462,195
5.8462,196
5.8623,197
5.8623,194
5.8623,191
5.8623,198
5.8623,205
5.8623,206
5.8623,198
5.8623,195
5.8782,197
5.8782,195
5.8819,192
5.8819,195
5.8856,203
5.8856,206
5.8856,201
5.8856,194
5.8943,197
5.8943,196
5.8943,193
5.8991,191
5.8991,201
5.8991,206
5.8991,204
5.8991,195
5.9102,197
5.9119,197
5.9144,194
5.9164,191
5.9181,198
5.9181,205
5.9181,206
5.9181,198
5.9262,195
5.9284,197
5.9304,195
5.932,192
5.9343,195
5.9361,203
5.9361,206
5.9361,201
5.9424,194
5.944,197
5.944,196
5.944,193
5.944,192
5.944,201
5.944,206
5.944,204
5.9584,195
5.9584,197
5.9584,197
5.9584,194
5.9584,191
5.9584,198
5.9584,205
5.9584,206
5.9744,198
5.9764,196
5.9784,197
5.9806,195
5.9824,192
5.9824,195
5.9824,203
5.9824,206
5.9904,201
5.9924,194
5.9946,197
5.9966,196
5.9986,193
5.9991,192
5.9991,201
5.9991,206
6.0065,203
6.0065,195
6.0065,196
6.0065,196
6.0065,194
6.0065,191
6.0065,198
6.0065,205
6.0224,206
6.0244,197
6.0264,196
6.0284,197
6.0304,195
6.0304,192
6.0304,195
6.0304,203
6.0385,206
6.0385,201
6.0406,194
6.0426,197
6.0426,195
6.0426,192
6.0426,191
6.0426,200
6.0543,205
6.0564,203
6.0584,194
6.0604,196
6.0604,196
6.0604,193
6.0604,190
6.0604,198
6.0701,205
6.0721,206
6.0721,198
6.0721,196
6.0721,198
6.0721,196
6.0721,192
6.0721,195
6.0862,204
6.0862,207
6.0862,201
6.0862,194
6.0862,197
6.0862,196
6.0862,193
6.0994,192
6.1023,201
6.1039,206
6.1064,204
6.1084,195
6.1104,197
6.1124,197
6.1144,194
6.1164,191
6.1181,198
6.1199,205
6.1224,205
6.1244,197
6.1264,195
6.1264,197
6.1264,195
6.1264,192
6.1343,195
6.1343,203
6.1384,206
6.1404,201
6.1424,194
6.1444,197
6.1464,196
6.1484,193
6.1504,192
6.1504,201
6.1504,206
6.1504,203
6.1504,195
6.1504,196
6.1504,196
6.1504,194
6.1663,191
6.1681,198
6.1691,205
6.1728,206
6.174,197
6.1763,195
6.1775,197
6.1775,195
6.1823,192
6.1823,195
6.1867,203
6.1875,206
6.1895,201
6.1895,194
6.1895,197
6.1895,196
6.198,193
6.1996,191
6.1996,201
6.2039,206
6.2059,203
6.2079,195
6.2099,196
6.2119,197
6.2139,194
6.2159,190
6.2193,198
6.2193,205
6.2193,206
6.2193,197
6.2193,195
6.2193,197
6.2299,195
6.2299,191
6.2299,195
6.2363,203
6.2379,206
6.2399,200
6.2419,194
6.2439,197
6.2459,195
6.2459,192
6.2459,191
6.2459,201
6.2459,205
6.2459,203
6.2459,195
6.2459,196
6.2618,196
6.2639,194
6.2659,190
6.2679,198
6.2697,205
6.2719,205
6.2719,197
6.2719,195
6.2779,197
6.2791,195
6.2811,191
6.2831,195
6.2831,203
6.2831,206
6.2831,201
6.2831,194
6.2949,197
6.2959,196
6.2979,193
6.3001,192
6.3001,201
6.3001,206
6.3001,203
6.3001,195
6.3098,197
6.3123,197
6.3139,194
6.3164,190
6.3164,198
6.3164,205
6.3164,205
6.3164,197
6.326,196
6.326,197
6.326,195
6.326,192
6.326,195
6.326,203
6.326,206
6.326,201
6.3423,194
6.3444,197
6.3464,196
6.3484,193
6.3504,192
6.3512,201
6.3512,206
6.3512,203
6.3583,195
6.3604,197
6.3624,197
6.3644,194
6.3664,190
6.3681,198
6.3681,205
6.3681,205
6.3742,197
6.3764,196
6.3764,197
6.3764,195
6.3764,192
6.3764,195
6.3764,203
6.3764,206
6.3901,200
6.3901,194
6.3901,197
6.3901,196
6.3901,192
6.3901,192
6.4009,201
6.4009,206
6.4059,203
6.4084,195
6.4084,197
6.4084,196
6.4084,194
6.4084,191
6.4084,199
6.4084,205
6.4219,206
6.4244,197
6.4264,196
6.4264,197
6.4264,195
6.4264,192
6.4264,195
6.4264,203
6.4377,207
6.4404,200
6.4404,194
6.4404,197
6.4404,196
6.4404,193
6.4404,192
6.4404,201
6.4541,206
6.4541,203
6.4541,195
6.4541,197
6.4541,197
6.4541,194
6.4541,191
6.4541,199
6.4698,205
6.4726,205
6.4744,197
6.4764,196
6.4764,197
6.4764,195
6.4764,191
6.4764,195
6.4856,203
6.488,206
6.4899,200
6.4899,194
6.4899,197
6.4899,196
6.4899,193
6.4899,192
6.5012,201
6.5012,206
6.5012,203
6.5012,195
6.5012,197
6.5012,196
6.5012,194
6.5012,191
6.5173,199
6.5199,205
6.5224,205
6.5244,197
6.5264,196
6.5284,197
6.5304,195
6.5324,191
6.5361,196
6.5361,203
6.5384,207
6.5399,200
6.5399,194
6.5399,197
6.5399,196
6.5399,193
6.5501,192
6.5514,201
6.5514,206
6.5514,203
6.5514,195
6.5514,197
6.5514,196
6.5514,194
6.5659,191
6.5659,199
6.5659,205
6.5659,205
6.5659,197
6.5659,196
6.5659,197
6.5659,195
6.5819,191
6.5819,196
6.5819,203
6.5865,206
6.5865,200
6.5865,194
6.5865,197
6.5865,196
6.5978,193
6.6004,192
6.6017,201
6.6017,206
6.6017,203
6.6017,195
6.6017,197
6.6017,196
6.6138,194
6.6166,191
6.618,199
6.6198,205
6.6198,205
6.6198,197
6.6198,196
6.6198,197
6.6297,195
6.6297,191
6.6297,196
6.6297,204
6.6297,206
6.6297,200
6.6297,194
6.6297,197
6.6457,195
6.6484,192
6.6504,192
6.6512,201
6.6544,206
6.6564,203
6.6584,195
6.6604,197
6.6624,196
6.6644,194
6.6664,191
6.6681,199
6.6698,205
6.6724,205
6.6744,197
6.6764,196
6.6784,197
6.6806,195
6.6806,192
6.6806,196
6.6806,204
6.6806,206
6.6806,200
6.6806,195
6.6944,197
6.6963,196
6.6972,193
6.6972,192
6.7018,202
6.7039,206
6.7064,203
6.7084,195
6.7104,197
6.7124,196
6.7144,194
6.7164,191
6.7187,199
6.7187,205
6.7187,205
6.7187,197
6.7187,196
6.7187,197
6.7187,195
6.7187,191
6.736,196
6.736,204
6.7384,206
6.7404,200
6.7424,195
6.7444,197
6.7464,196
6.7484,193
6.7506,192
6.7506,202
6.7544,206
6.7564,203
6.7584,194
6.7604,196
6.7624,196
6.7644,194
6.7664,190
6.7681,199
6.7681,205
6.7724,205
6.7744,196
6.7764,195
6.7784,196
6.7804,194
6.7824,191
6.7824,195
6.7824,203
6.7824,206
6.7824,200
6.7824,195
6.7824,197
6.7824,196
6.7983,193
6.8004,193
6.8017,202
6.8044,206
6.8064,203
6.8084,195
6.8104,197
6.8124,197
6.8144,194
6.8144,191
6.8144,199
6.8144,205
6.8144,205
6.8144,196
6.8144,196
6.8144,197
6.8302,195
6.8302,191
6.8302,196
6.8361,204
6.8361,206
6.8361,200
6.8361,195
6.8361,197
6.8463,196
6.8463,193
6.8463,193
6.8463,202
6.8463,206
6.8463,203
6.8463,195
6.8463,197
6.8623,196
6.8644,194
6.8664,191
6.8681,199
6.8681,205
6.8724,205
6.8744,196
6.8764,196
6.8784,197
6.8784,195
6.8804,191
6.8824,196
6.8844,204
6.8844,206
6.8844,200
6.8844,195
6.8942,197
6.8942,196
6.8942,192
6.8942,193
6.9017,202
6.9017,206
6.9017,203
6.9017,195
6.9103,197
6.9124,196
6.9144,194
6.9164,191
6.9181,199
6.9181,205
6.9224,205
6.9244,196
6.9264,196
6.9284,197
6.9284,195
6.9284,191
6.9284,196
6.9284,204
6.9284,206
6.9284,199
6.9423,195
6.9444,197
6.9444,195
6.9444,192
6.9444,193
6.9444,202
6.9444,206
6.9444,203
6.9582,194
6.9582,197
6.9582,196
6.9582,193
6.9582,191
6.9582,199
6.9582,205
6.9582,205
6.9741,196
6.9764,196
6.9784,197
6.9801,195
6.9824,191
6.9824,196
6.9824,204
6.9824,206
6.9901,200
6.9901,194
6.9901,197
6.9901,195
6.9901,192
6.9901,193
7.0017,202
7.0017,206
7.0061,203
7.0061,194
7.0061,197
7.0061,196
7.0061,194
7.0061,191
7.0061,199
7.0061,205
7.0224,205
7.0244,196
7.0264,196
7.0284,197
7.0304,195
7.0324,191
7.0324,196
7.0324,204
7.0383,206
7.0404,200
7.0424,195
7.0444,197
7.0464,196
7.0484,193
7.0484,193
7.0484,202
7.0544,206
7.0564,203
7.0564,195
7.0584,197
7.0584,196
7.0584,194
7.0584,191
7.0584,199
7.0703,205
7.0724,205
7.0724,196
7.0724,196
7.0724,197
7.0724,195
7.0724,191
7.0724,197
7.0861,204
7.0861,206
7.0861,199
7.0861,195
7.0861,197
7.0861,196
7.0861,193
7.0861,193
7.1023,202
7.1038,206
7.1064,203
7.1084,194
7.1104,197
7.1124,196
7.1124,193
7.1124,191
7.1179,199
7.1199,205
7.1224,205
7.124,196
7.1264,196
7.1284,197
7.1284,195
7.1284,191
7.1339,196
7.1339,204
7.1386,206
7.1386,199
7.1386,195
7.1386,197
7.1386,196
7.1386,192
7.1498,193
7.1498,202
7.1498,206
7.1498,203
7.1498,194
7.1498,196
7.1498,196
7.1498,194
7.166,191
7.168,199
7.1698,205
7.1724,205
7.1749,196
7.1764,196
7.1784,197
7.1804,195
7.1824,191
7.1824,196
7.1824,204
7.1824,206
7.1824,199
7.1824,195
7.1824,197
7.1824,196
7.1983,192
7.2004,193
7.2024,202
7.2024,206
7.2024,202
7.2024,194
7.2024,197
7.2024,196
7.2143,193
7.2143,191
7.2143,199
7.2143,205
7.2143,205
7.2143,196
7.2143,196
7.2143,197
7.2303,195
7.2317,191
7.2338,197
7.2364,204
7.2384,206
7.2404,199
7.2424,195
7.2444,197
7.2464,196
7.2482,192
7.2482,193
7.2482,202
7.2528,206
7.2528,203
7.2528,194
7.2528,197
7.2624,196
7.2624,193
7.2624,191
7.2624,199
7.2624,205
7.2624,204
7.2624,196
7.2624,196
7.2784,197
7.2804,195
7.2812,191
7.2833,197
7.2833,204
7.2833,206
7.2833,199
7.2833,195
7.2944,197
7.2944,196
7.2964,192
7.3004,193
7.3015,202
7.3025,206
7.3025,202
7.3025,194
7.3103,197
7.3124,196
7.3135,193
7.3135,191
7.3135,199
7.3202,205
7.3202,205
7.3202,196
7.3264,196
7.3264,197
7.3264,195
7.3264,191
7.3264,197
7.3264,204
7.3264,206
7.3264,199
7.3424,195
7.3424,197
7.3424,195
7.3424,192
7.3424,193
7.3424,202
7.3424,206
7.3424,202
7.3584,194
7.3584,197
7.3584,196
7.3632,193
7.3652,191
7.3672,199
7.3692,205
7.3712,205
7.3744,196
7.3764,196
7.3784,197
7.3804,195
7.3824,191
7.3824,196
7.3864,204
7.3886,206
7.3904,199
7.3921,195
7.3944,197
7.3964,195
7.3984,192
7.4004,193
7.4012,202
7.4027,206
7.4064,202
7.4064,194
7.4064,197
7.4064,196
7.4064,193
7.4064,191
7.4064,200
7.4064,205
7.4224,205
7.4239,196
7.4264,196
7.4284,197
7.4304,195
7.4304,191
7.4304,197
7.4304,204
7.4383,206
7.4383,199
7.4411,195
7.4411,197
7.4411,195
7.4411,192
7.4411,193
7.4411,202
7.4542,206
7.4542,202
7.4542,194
7.4542,197
7.4542,196
7.4542,193
7.4542,191
7.4542,200
7.4701,205
7.4701,205
7.4701,196
7.4701,196
7.4701,197
7.4701,195
7.4701,191
7.4701,197
7.4861,204
7.4884,206
7.4904,199
7.4924,195
7.4944,196
7.4944,195
7.4944,191
7.4944,193
7.502,202
7.5039,205
7.5064,202
7.5084,194
7.5104,196
7.5124,196
7.5144,193
7.5164,191
7.518,200
7.5198,206
7.5198,205
7.5198,196
7.5198,197
7.5198,198
7.5198,195
7.5198,191
7.5343,197
7.5363,205
7.538,206
7.5399,199
7.5418,195
7.5437,197
7.5456,196
7.5475,192
7.5504,193
7.5504,202
7.554,206
7.5559,202
7.5559,194
7.5596,197
7.5596,196
7.5596,193
7.5664,191
7.5679,200
7.5696,205
7.5719,205
7.5719,196
7.5719,196
7.5719,197
7.5719,194
7.582,191
7.582,197
7.582,204
7.582,206
7.582,199
7.582,195
7.582,197
7.582,196
7.598,192
7.598,193
7.598,202
7.6032,206
7.6032,202
7.6032,194
7.6032,197
7.6032,196
7.6138,193
7.6159,191
7.6179,200
7.6179,206
7.6219,204
7.6239,195
7.6239,196
7.6239,197
7.6299,194
7.6299,191
7.6299,197
7.6363,204
7.6363,206
7.6363,199
7.6363,195
7.6363,197
7.6459,195
7.6479,192
7.6499,193
7.6516,202
7.6537,206
7.6559,202
7.6559,194
7.6559,197
7.6623,196
7.6639,193
7.6639,191
7.6639,200
7.6639,205
7.6639,204
7.6639,195
7.6639,196
7.6778,197
7.6778,194
7.6778,191
7.6778,197
7.6778,204
7.6778,206
7.6778,199
7.6778,195
7.694,197
7.6963,195
7.6963,192
7.6963,193
7.6963,202
7.7038,206
7.7038,202
7.7038,194
7.7098,197
7.7123,196
7.7123,193
7.7123,191
7.7123,200
7.7123,205
7.7123,204
7.7123,195
7.7257,196
7.7257,197
7.7257,194
7.7257,191
7.7257,197
7.7257,204
7.7257,206
7.7257,198
7.7416,195
7.7443,197
7.7463,195
7.7483,192
7.7483,193
7.7483,202
7.7483,206
7.7483,202
7.7576,194
7.7599,197
7.7605,196
7.7644,193
7.7664,191
7.7693,200
7.7693,205
7.7724,205
7.7744,195
7.7764,196
7.7784,197
7.7804,194
7.7824,191
7.7843,197
7.7858,205
7.7858,206
7.7858,199
7.7858,195
7.7945,197
7.7964,196
7.7984,192
7.8004,194
7.8012,203
7.8049,206
7.8064,202
7.8084,194
7.8104,197
7.8124,196
7.8144,193
7.8164,191
7.8181,200
7.8197,206
7.8224,204
7.8244,195
7.8264,196
7.8284,197
7.8284,194
7.8284,191
7.8284,197
7.8284,205
7.8284,206
7.8284,199
7.8422,195
7.8422,197
7.8422,195
7.8422,192
7.8422,194
7.8422,202
7.8422,206
7.8422,202
7.8582,194
7.8604,197
7.8604,196
7.8604,193
7.8604,192
7.8604,200
7.8604,205
7.8604,204
7.8743,196
7.8764,196
7.8764,197
7.8764,194
7.8764,191
7.8764,197
7.8764,204
7.8764,206
7.8901,199
7.8924,195
7.8944,197
7.8944,195
7.8944,192
7.8944,193
7.8944,202
7.9045,206
7.9064,201
7.9086,194
7.9106,197
7.9126,196
7.9126,193
7.9126,191
7.9126,200
7.9126,206
7.9222,204
7.9222,195
7.9222,196
7.9222,197
7.9222,194
7.9222,191
7.9222,197
7.9222,205
7.9382,206
7.9404,198
7.9414,195
7.9414,197
7.9414,195
7.9414,192
7.9414,194
7.9414,203
7.9542,206
7.9542,202
7.9542,194
7.9542,197
7.9542,196
7.9542,193
7.9542,191
7.9542,200
7.9542,205
7.9715,204
7.9715,196
7.9715,196
7.9715,197
7.9715,194
7.9715,191
7.9715,197
7.9863,205
7.9884,206
7.9904,199
7.9924,195
7.9924,197
7.9924,195
7.9924,192
7.9924,194
8.002,203
8.0039,206
8.0062,202
8.0062,194
8.0062,197
8.0062,196
8.0062,193
8.0062,191
8.0181,200
8.0198,205
8.0224,204
8.0244,195
8.0264,196
8.0284,197
8.0304,194
8.0324,191
8.0342,197
8.0342,204
8.0384,206
8.0404,198
8.0424,195
8.0444,197
8.0464,195
8.0484,191
8.0504,194
8.0512,203
8.0512,206
8.0512,202
8.0512,194
8.0512,197
8.0512,196
8.0512,193
8.0663,191
8.0683,200
8.0683,205
8.0703,204
8.0703,195
8.0703,196
8.0703,197
8.0703,194
8.0821,191
8.0821,197
8.086,205
8.086,206
8.086,198
8.086,195
8.086,197
8.086,195
8.0983,192
8.0983,194
8.0983,203
8.0983,206
8.1064,201
8.1064,194
8.1064,197
8.1064,196
8.1144,193
8.1158,191
8.118,200
8.118,205
8.1224,204
8.1224,195
8.1224,196
8.1224,197
8.1304,194
8.1319,191
8.1342,198
8.1342,205
8.1384,206
8.1404,198
8.1424,195
8.1444,197
8.1464,195
8.1484,192
8.1504,194
8.1504,203
8.1504,206
8.1504,201
8.1504,194
8.1504,197
8.1623,196
8.1644,193
8.1664,191
8.1681,201
8.1681,206
8.1724,204
8.1744,195
8.1764,197
8.1784,197
8.1806,194
8.1824,191
8.1824,198
8.1824,205
8.1824,206
8.1824,198
8.1824,195
8.1944,197
8.1966,195
8.1966,192
8.1966,194
8.1966,203
8.1966,206
8.2065,201
8.2065,194
8.2104,197
8.2104,196
8.2104,193
8.2104,191
8.2104,201
8.2104,205
8.2104,204
8.2104,195
8.2264,196
8.2264,197
8.2264,194
8.2264,190
8.2264,197
8.2264,204
8.2264,205
8.2264,198
8.2424,195
8.2444,196
8.2464,195
8.2484,191
8.2504,194
8.2512,203
8.2512,206
8.2512,201
8.2585,194
8.2599,197
8.2624,197
8.2644,194
8.2664,192
8.2681,201
8.2681,206
8.2681,205
8.2745,195
8.2759,197
8.2784,197
8.2784,194
8.2784,191
8.2784,198
8.2784,205
8.2784,206
8.2905,198
8.2918,195
8.2925,197
8.2945,195
8.2945,192
8.2945,194
8.2945,203
8.303,206
8.3052,201
8.3079,194
8.3104,197
8.3124,196
8.314,193
8.3164,191
8.318,201
8.3197,205
8.3224,204
8.3244,195
8.3264,196
8.3284,197
8.3304,194
8.3324,191
8.3342,198
8.3342,205
8.3342,206
8.3342,198
8.3342,195
8.3442,197
8.3442,195
8.3442,192
8.3442,194
8.3442,203
8.3442,206
8.3442,201
8.3442,194
8.3603,197
8.3603,196
8.3603,193
8.3661,191
8.3684,201
8.3694,205
8.3712,204
8.3731,195
8.3768,196
8.3768,197
8.3768,194
8.3768,191
8.3768,198
8.3768,205
8.3768,205
8.3768,198
8.3768,195
8.3926,197
8.3926,195
8.3926,192
8.3926,194
8.3926,203
8.4035,206
8.4055,201
8.4071,194
8.4098,197
8.4098,196
8.4098,193
8.4098,191
8.4098,200
8.4195,205
8.4195,204
8.4236,195
8.4246,196
8.4279,197
8.4299,194
8.4319,191
8.4339,198
8.4339,205
8.4339,206
8.4339,198
8.4419,196
8.4439,197
8.4439,195
8.4439,191
8.4439,194
8.4439,203
8.4439,206
8.4439,201
8.4579,194
8.4579,197
8.4579,196
8.4579,193
8.4579,191
8.4579,201
8.4697,205
8.4728,204
8.4728,195
8.4728,196
8.4728,197
8.4728,194
8.4728,191
8.4728,198
8.4857,205
8.4887,206
8.4887,198
8.4919,195
8.4939,197
8.4959,195
8.4979,192
8.4999,195
8.5014,203
8.5014,206
8.5047,201
8.5075,194
8.5075,197
8.5075,196
8.5075,193
8.5075,192
8.5075,201
8.5205,206
8.5217,204
8.5239,195
8.5239,197
8.5239,197
8.5239,194
8.5239,191
8.5239,198
8.5363,205
8.5363,206
8.5363,198
8.5363,196
8.5363,197
8.5363,195
8.5363,192
8.5363,195
8.5523,203
8.5544,206
8.5564,201
8.5564,194
8.5564,197
8.5564,196
8.5564,193
8.5564,192
8.5681,201
8.5681,206
8.5681,204
8.5681,195
8.5681,196
8.5681,197
8.5681,194
8.5681,191
8.5843,198
8.5843,205
8.5843,206
8.5843,198
8.5843,196
8.5843,197
8.5843,195
8.5843,192
8.6004,195
8.6004,203
8.6004,206
8.6004,201
8.6077,194
8.6077,197
8.6077,196
8.6077,193
8.6163,192
8.618,201
8.618,206
8.6224,204
8.6244,195
8.6264,197
8.6284,196
8.6304,194
8.6324,191
8.6342,198
8.6342,205
8.6384,206
8.6404,197
8.6424,196
8.6444,197
8.6444,195
8.6483,191
8.6501,195
8.6513,203
8.6513,206
8.6513,201
8.6513,194
8.6513,197
8.6513,196
8.6643,193
8.6643,192
8.6679,201
8.6699,206
8.672,204
8.674,195
8.676,197
8.678,197
8.68,194
8.68,191
8.68,198
8.6857,205
8.6857,206
8.6857,198
8.6857,195
8.6857,197
8.6962,195
8.6962,191
8.6962,195
8.7014,203
8.7044,207
8.7064,201
8.7081,194
8.7081,197
8.7124,196
8.7144,193
8.7144,192
8.7144,201
8.7144,206
8.7144,204
8.7144,195
8.7144,196
8.7282,196
8.7282,194
8.7282,191
8.7282,198
8.7282,205
8.7282,205
8.7282,197
8.7282,195
8.7443,197
8.7464,195
8.7484,191
8.7504,195
8.7512,203
8.7544,206
8.7564,201
8.7564,194
8.7602,197
8.7602,196
8.7602,193
8.7602,191
8.7602,201
8.7602,206
8.7602,203
8.7602,195
8.7761,197
8.7784,196
8.7804,194
8.7824,191
8.7824,198
8.7824,205
8.7824,206
8.7824,197
8.7922,196
8.7944,197
8.7964,195
8.7984,192
8.8004,195
8.8014,203
8.8044,207
8.8064,200
8.8089,194
8.8089,197
8.8089,196
8.8089,193
8.8089,192
8.8089,201
8.8089,206
8.8089,204
8.8244,195
8.8258,197
8.8279,196
8.8304,194
8.8324,190
8.8342,198
8.836,205
8.8384,205
8.8404,197
8.8424,196
8.8442,197
8.8464,195
8.8486,191
8.8486,195
8.8521,203
8.8524,206
8.8524,200
8.8524,194
8.8524,197
8.8524,196
8.8524,193
8.8524,192
8.8683,201
8.8683,206
8.8683,203
8.8683,195
8.8683,196
8.8683,197
8.8683,194
8.8683,191
8.8844,198
8.8844,205
8.8844,205
8.8844,197
8.8844,196
8.8844,197
8.8844,195
8.8844,191
8.9004,195
8.9015,203
8.9043,207
8.9061,200
8.9085,194
8.9097,197
8.9115,196
8.9115,193
8.9163,192
8.918,201
8.918,206
8.9217,203
8.9232,195
8.9232,196
8.9232,196
8.9232,194
8.9321,191
8.9321,199
8.9321,205
8.9321,205
8.9321,197
8.9321,196
8.9321,197
8.9321,195
8.9481,191
8.9481,195
8.9513,203
8.953,206
8.953,200
8.953,193
8.953,196
8.953,195
8.9639,192
8.9639,191
8.9639,201
8.9639,205
8.9639,203
8.9639,194
8.9639,196
8.9639,197
8.9799,194
8.9799,191
8.9799,199
8.9799,206
8.9799,206
8.9799,197
8.9799,196
8.9799,197
8.9959,195
8.9959,191
8.9959,195
8.9959,203
8.9959,206
8.9959,200
8.9959,195
9.009,197
9.012,196
9.014,193
9.0159,192
9.0159,201
9.0159,206
9.0159,203
9.0159,195
9.0159,197
9.029,196
9.029,194
9.029,190
9.029,199
9.0356,205
9.0356,205
9.0356,197
9.0356,196
9.0439,197
9.0464,195
9.048,191
9.0504,195
9.0514,203
9.0544,206
9.0564,200
9.0584,194
9.0604,197
9.0624,196
9.0644,193
9.0644,192
9.0644,201
9.0644,206
9.0644,203
9.0644,195
9.0763,197
9.0784,197
9.0804,194
9.0804,191
9.0804,199
9.0804,205
9.0804,205
9.0804,197
9.0923,196
9.0923,197
9.0923,195
9.0923,191
9.0923,195
9.1021,203
9.1021,206
9.1021,200
9.1082,194
9.1094,197
9.1094,196
9.1094,193
9.1094,192
9.1094,201
9.1094,206
9.1094,203
9.1242,194
9.1259,197
9.1284,196
9.1304,194
9.1324,191
9.1342,199
9.1342,205
9.1384,205
9.1404,197
9.1424,196
9.1444,197
9.1464,195
9.1484,191
9.1504,195
9.1504,203
9.1504,206
9.1564,200
9.1579,194
9.1604,197
9.1624,196
9.1644,192
9.1664,192
9.168,201
9.168,206
9.1724,203
9.1744,195
9.1764,197
9.1784,196
9.1804,194
9.1824,191
9.1824,199
9.1824,205
9.1885,205
9.19,197
9.19,196
9.19,197
9.19,195
9.19,191
9.19,196
9.19,203
9.2046,206
9.2046,200
9.2046,194
9.2097,197
9.2097,196
9.2097,192
9.2097,192
9.2097,201
9.2097,206
9.2218,203
9.2239,194
9.2239,197
9.2239,196
9.2239,194
9.2239,191
9.2239,199
9.2239,205
9.2369,205
9.2369,197
9.2369,196
9.2369,197
9.2369,195
9.2369,192
9.2369,196
9.2369,204
9.2544,206
9.2564,200
9.2584,195
9.2604,197
9.2624,196
9.2644,192
9.2664,192
9.268,202
9.2698,206
9.2724,203
9.2744,195
9.2764,197
9.2784,196
9.2804,194
9.2824,191
9.2843,199
9.2843,205
9.2884,205
9.2904,197
9.2924,196
9.2924,197
9.2924,195
9.2924,191
9.3003,196
9.3003,204
9.3003,206
9.3003,200
9.3003,195
9.3103,197
9.3103,196
9.3103,193
9.3163,192
9.3163,201
9.3163,206
9.3224,203
9.3244,194
9.3264,197
9.3264,196
9.3264,194
9.3324,191
9.3339,199
9.3339,205
9.3384,205
9.3384,196
9.3384,196
9.3384,197
9.3384,195
9.3483,191
9.3504,196
9.3511,203
9.3531,206
9.3531,200
9.3531,195
9.3531,197
9.3531,196
9.3643,192
9.3643,192
9.3693,201
9.3693,206
9.3724,203
9.3739,195
9.3764,197
9.3784,196
9.3804,194
9.3824,191
9.3842,199
9.3862,205
9.3884,205
9.3904,196
9.3924,196
9.394,197
9.3964,195
9.3984,191
9.4004,196
9.4004,204
9.4044,206
9.4044,200
9.4044,195
9.4044,197
9.4106,196
9.4124,193
9.4124,192
9.4124,202
9.4199,206
9.4224,203
9.4244,194
9.4264,197
9.4284,196
9.4304,194
9.4324,191
9.4342,199
9.4342,205
9.4384,205
9.4384,196
9.4384,196
9.4443,197
9.4443,195
9.4443,191
9.4499,196
9.4513,204
9.4513,207
9.4513,200
9.4513,195
9.4604,197
9.4604,196
9.4604,192
9.4604,193
9.4604,202
9.4604,206
9.4604,203
9.4604,194
9.4763,197
9.4763,196
9.4763,194
9.4763,191
9.4763,199
9.4763,205
9.4763,205
9.4763,196
9.4923,196
9.4944,197
9.4964,195
9.4984,191
9.5004,196
9.5012,204
9.5044,206
9.5044,200
9.5081,195
9.51,197
9.5129,196
9.5144,192
9.5164,192
9.518,202
9.518,206
9.518,203
9.5241,194
9.5264,197
9.5284,196
9.5304,194
9.5324,191
9.5342,199
9.5342,205
9.5342,205
9.5401,196
9.5424,196
9.5424,197
9.5424,195
9.5424,191
9.5424,196
9.5424,204
9.5424,206
9.5563,200
9.5584,195
9.5604,197
9.5624,196
9.5644,193
9.5664,192
9.568,202
9.5698,206
9.5724,203
9.5724,194
9.5763,197
9.5782,196
9.5801,194
9.5819,191
9.5839,199
9.5857,205
9.5883,205
9.5883,196
9.5883,196
9.5883,197
9.5883,195
9.5883,191
9.5883,196
9.5883,204
9.604,206
9.604,200
9.604,195
9.604,197
9.6128,196
9.6128,192
9.6128,192
9.6128,202
9.6198,206
9.6219,203
9.6219,194
9.6219,197
9.6219,196
9.6219,193
9.6219,191
9.6219,199
9.6358,205
9.6379,205
9.6399,196
9.6419,196
9.6439,197
9.6459,195
9.6459,191
9.6459,196
9.6519,204
9.6519,206
9.6559,199
9.6579,194
9.6599,196
9.6619,195
9.6639,191
9.6659,192
9.6679,201
9.6679,205
9.6679,202
9.6679,194
9.6679,196
9.6679,196
9.6679,193
9.6679,191
9.6839,199
9.6839,205
9.6839,205
9.6839,197
9.6839,197
9.6839,198
9.6839,195
9.6839,192
9.7008,196
9.7015,204
9.7032,206
9.7032,199
9.7032,195
9.7032,197
9.7032,196
9.7134,192
9.7156,193
9.718,202
9.718,206
9.718,203
9.718,194
9.718,197
9.718,196
9.718,194
9.7319,191
9.7319,199
9.7319,205
9.7319,205
9.7319,196
9.7319,196
9.7319,197
9.7319,194
9.748,191
9.7504,197
9.7504,204
9.7539,206
9.7564,199
9.7584,195
9.7584,197
9.7584,196
9.7642,192
9.7662,193
9.768,202
9.7698,206
9.7724,203
9.7744,194
9.7764,197
9.7784,196
9.7804,193
9.7824,191
9.7824,199
9.7824,205
9.7824,205
9.7824,196
9.7824,196
9.7824,197
9.7963,195
9.7984,191
9.8006,196
9.8006,204
9.8006,206
9.8006,199
9.8006,195
9.8006,197
9.8124,195
9.814,192
9.814,193
9.814,202
9.814,206
9.814,202
9.814,194
9.814,197
9.8284,196
9.83,193
9.8316,191
9.8316,199
9.8364,205
9.8364,205
9.8364,196
9.8364,196
9.8444,197
9.8444,194
9.8444,191
9.8444,196
9.8444,204
9.8444,206
9.8444,199
9.8444,195
9.8604,197
9.8604,195
9.8604,192
9.8604,193
9.8604,202
9.8604,206
9.8604,202
9.8604,194
9.8764,197
9.878,196
9.8798,193
9.8824,191
9.8824,199
9.8855,205
9.8884,205
9.8904,195
9.8924,196
9.8944,197
9.8964,195
9.8984,191
9.9004,197
9.9004,204
9.9026,206
9.9064,199
9.9084,195
9.9104,197
9.9124,195
9.9149,192
9.9164,193
9.918,202
9.918,206
9.918,202
9.918,194
9.9264,197
9.9264,196
9.9264,193
9.9264,191
9.9264,200
9.9264,206
9.9264,205
9.9264,196
9.9423,196
9.9444,197
9.9464,195
9.9484,191
9.9504,197
9.9514,204
9.9549,206
9.9549,199
9.9584,195
9.9604,197
9.9624,196
9.9644,192
9.9644,193
9.9644,202
9.9644,206
9.9644,202
9.9745,194
9.9764,197
9.9764,196
9.9764,193
9.9764,191
9.9764,200
9.9764,205
9.9764,205
9.9904,196
9.9904,196
9.9904,197
9.9904,195
9.9904,191
9.9904,197
10.0021,204
10.0021,206
10.0064,199
10.0086,195
10.0104,197
10.0124,195
10.0149,192
10.0164,193
10.018,202
10.0198,206
10.0224,202
10.0239,194
10.0239,197
10.0239,196
10.0239,193
10.0239,191
10.0239,200
10.0239,205
10.0383,204
10.0383,195
10.0383,196
10.0383,197
10.0383,195
10.0383,191
10.0383,197
10.0383,204
10.0544,206
10.0564,199
10.0584,195
10.0604,197
10.0624,196
10.0644,192
10.0644,193
10.0644,202
10.0701,206
10.0724,202
10.0744,194
10.0744,197
10.0744,196
10.0744,193
10.0821,191
10.0837,200
10.0862,206
10.0879,204
10.0901,196
10.092,196
10.094,197
10.094,194
10.094,191
10.1012,197
10.1012,204
10.1038,206
10.1038,199
10.1038,195
10.1038,197
10.1038,196
10.1145,192
10.1145,193
10.1194,202
10.1194,206
10.1194,202
10.1194,194
10.1194,197
10.1194,196
10.1194,193
10.1194,191
10.1335,200
10.1356,205
10.1382,205
10.1404,196
10.1424,196
10.1424,197
10.1424,194
10.1424,191
10.1495,197
10.1495,205
10.1531,206
10.1531,199
10.1531,195
10.1531,197
10.1531,196
10.1531,192
10.1657,194
10.168,202
10.168,206
10.1724,202
10.1744,194
10.1764,197
10.1764,196
10.1764,193
10.1818,191
10.1818,200
10.1818,205
10.1818,204
10.1818,195
10.1818,196
10.1818,197
10.1818,195
10.1978,191
10.2004,197
10.2013,204
10.2044,206
10.2064,199
10.2084,195
10.2104,197
10.2124,195
10.2149,192
10.2164,194
10.218,202
10.218,206
10.218,202
10.218,194
10.218,197
10.218,196
10.2303,193
10.2303,191
10.2303,200
10.2303,205
10.2303,204
10.2303,195
10.2303,196
10.2303,197
10.2462,194
10.2462,191
10.2462,197
10.2462,204
10.2462,206
10.2462,199
10.2462,195
10.2462,197
10.2623,195
10.2623,192
10.2664,193
10.268,202
10.268,206
10.2724,202
10.2744,194
10.2764,197
10.2784,196
10.2804,193
10.2824,191
10.2824,200
10.2824,205
10.2824,204
10.2824,195
10.2824,196
10.2945,197
10.2945,194
10.2984,191
10.2984,197
10.2984,205
10.2984,206
10.2984,199
10.2984,195
10.3105,197
10.3105,195
10.3105,192
10.3151,194
10.3151,202
10.3151,206
10.3151,202
10.3151,194
10.3265,197
10.3265,196
10.3265,193
10.3326,191
10.3344,200
10.3344,205
10.3384,204
10.3404,195
10.3424,196
10.3444,197
10.3464,195
10.3484,191
10.3504,197
10.3512,205
10.3544,206
10.3564,199
10.3584,195
10.3604,197
10.3604,195
10.3604,192
10.3604,193
10.3604,202
10.3604,206
10.3604,201
10.3744,193
10.3744,196
10.3744,195
10.3744,193
10.3744,191
10.3744,200
10.3744,205
10.3744,204
10.3903,195
10.3919,196
10.3944,197
10.3959,195
10.3984,191
10.4004,198
10.4004,205
10.4004,206
10.4064,199
10.4078,196
10.4098,197
10.4124,196
10.4144,192
10.4169,194
10.4191,203
10.4191,206
10.4224,202
10.4244,194
10.4264,197
10.4284,196
10.4304,193
10.4324,191
10.436,200
10.4366,206
10.4366,204
10.4366,196
10.4366,196
10.4366,197
10.4366,195
10.4366,191
10.4366,197
10.4516,204
10.4516,206
10.4516,198
10.4516,195
10.4516,197
10.4516,195
10.4516,192
10.4516,194
10.4677,203
10.4677,206
10.4724,202
10.4744,194
10.4744,197
10.4744,196
10.4744,193
10.4744,191
10.4838,200
10.4838,206
10.4838,204
10.4838,195
10.4838,196
10.4838,197
10.4838,194
10.4838,191
10.4997,197
10.4997,205
10.4997,206
10.4997,198
10.4997,195
10.4997,197
10.4997,195
10.4997,192
10.5158,194
10.5178,203
10.5198,206
10.5224,201
10.5244,194
10.5264,197
10.5284,196
10.5304,193
10.5324,191
10.5324,200
10.5347,205
10.5347,204
10.5347,195
10.5347,196
10.5347,196
10.5347,194
10.5484,191
10.5484,197
10.5484,205
10.5484,206
10.5484,198
10.5484,195
10.5484,197
10.5484,195
10.5644,192
10.5664,194
10.5676,203
10.5676,206
10.5676,201
10.5676,194
10.5676,197
10.5676,196
10.5804,193
10.5824,191
10.5837,200
10.5837,206
10.5864,204
10.5864,195
10.5864,196
10.5864,197
10.5964,194
10.5964,191
10.6004,198
10.6021,205
10.6044,206
10.6044,198
10.6044,195
10.6044,197
10.6125,195
10.614,191
10.6168,194
10.6168,203
10.6168,206
10.6168,201
10.6168,194
10.6168,197
10.6286,196
10.6286,193
10.6286,191
10.6286,200
10.6286,206
10.6286,204
10.6286,195
10.6286,196
10.6445,197
10.6459,194
10.6484,191
10.6504,198
10.6504,205
10.6504,206
10.6504,198
10.6504,195
10.6606,197
10.6624,195
10.6644,192
10.6664,194
10.668,203
10.6698,207
10.6724,202
10.6744,194
10.6764,197
10.6784,196
10.6804,193
10.6824,191
10.6824,200
10.6824,206
10.6824,204
10.6824,195
10.6923,196
10.6944,197
10.6944,194
10.6944,191
10.6944,198
10.6944,205
10.6944,206
10.6944,198
10.7082,196
10.7104,197
10.7124,195
10.7144,192
10.7164,194
10.718,203
10.7198,206
10.7198,201
10.7242,194
10.7242,197
10.7242,196
10.7242,193
10.7242,191
10.7242,201
10.7242,206
10.7242,204
10.7404,195
10.7404,196
10.7404,197
10.7404,194
10.7404,191
10.7404,198
10.7404,205
10.7404,206
10.7563,198
10.7563,195
10.7563,197
10.7563,195
10.7563,192
10.7563,194
10.7563,203
10.7563,206
10.7724,201
10.7724,194
10.7764,197
10.7784,196
10.7804,193
10.7824,191
10.7824,201
10.7824,206
10.7885,204
10.7904,195
10.7924,196
10.7944,197
10.7964,194
10.7984,191
10.7984,198
10.7984,205
10.8045,206
10.8064,198
10.8084,195
10.8104,197
10.8124,195
10.8144,192
10.8144,195
10.8172,203
10.8202,206
10.8224,201
10.8244,194
10.8264,197
10.8284,196
10.8284,193
10.8284,191
10.8284,201
10.8362,206
10.8379,204
10.8379,195
10.8379,196
10.8379,196
10.8379,194
10.8379,191
10.8379,198
10.8522,205
10.854,205
10.8564,198
10.8586,195
10.8586,197
10.8586,195
10.8586,191
10.8586,195
10.8682,203
10.8682,206
10.8682,201
10.8682,194
10.8682,197
10.8682,196
10.8682,193
10.8682,192
10.8843,201
10.8843,206
10.8843,204
10.8843,195
10.8843,197
10.8843,197
10.8843,194
10.8843,191
10.9002,198
10.9002,205
10.9002,206
10.9002,198
10.9002,195
10.9002,197
10.9002,195
10.9002,191
10.9164,195
10.9184,203
10.9198,206
10.9223,201
10.9244,194
10.9264,197
10.9284,196
10.9284,193
10.9325,191
10.9339,201
10.9344,206
10.9364,204
10.9364,195
10.9364,196
10.9364,197
10.9364,194
10.9485,191
10.9497,198
10.9527,205
10.9539,206
10.9564,198
10.9584,195
10.9604,197
10.9624,195
10.9644,192
10.9664,195
10.9664,203
10.9706,206
10.9706,201
10.9706,194
10.9706,197
10.9706,196
10.9804,193
10.9824,191
10.9824,201
10.9824,206
10.9824,204
10.9824,195
10.9824,196
10.9824,197
10.9963,194
10.9984,191
10.9984,198
11.0021,205
11.0021,206
11.0021,197
11.0021,196
11.0021,197
11.0122,195
11.0122,192
11.0122,195
11.0184,203
11.0184,207
11.0184,201
11.0184,194
11.0184,197
11.0283,196
11.0304,193
11.0324,192
11.0342,201
11.0357,206
11.0384,204
11.0384,195
11.0384,196
11.0443,197
11.0464,194
11.0486,191
11.0506,198
11.0511,205
11.0511,206
11.0511,197
11.0511,196
11.0602,197
11.0602,195
11.0602,191
11.0602,195
11.0602,203
11.0602,206
11.0602,201
11.0602,194
11.0762,197
11.0784,196
11.0784,193
11.0784,191
11.0784,200
11.0784,205
11.0784,203
11.0784,194
11.0921,196
11.0946,196
11.0966,193
11.0984,190
11.0984,198
11.0984,205
11.0984,205
11.0984,198
11.1082,196
11.1104,198
11.1104,196
11.1104,192
11.1104,196
11.1186,204
11.1186,207
11.1186,201
11.1244,194
11.1264,197
11.1264,196
11.1264,193
11.1264,192
11.1264,201
11.1264,206
11.1264,204
11.1404,195
11.1404,196
11.1404,196
11.1404,194
11.1404,191
11.1404,198
11.1404,205
11.1404,205
11.1564,197
11.1578,196
11.1604,197
11.1624,195
11.1644,192
11.1664,195
11.168,203
11.1698,206
11.1723,201
11.1739,194
11.1739,197
11.1739,196
11.1739,193
11.1739,192
11.1739,201
11.1739,206
11.1882,204
11.1882,195
11.1882,196
11.1882,196
11.1882,194
11.1882,190
11.1882,198
11.1882,205
11.2044,205
11.2044,197
11.2044,196
11.2044,197
11.2124,195
11.2124,191
11.2124,195
11.2185,203
11.2185,206
11.2226,201
11.2246,194
11.2264,197
11.2282,196
11.2282,193
11.2282,191
11.2282,201
11.2361,206
11.2361,203
11.2361,195
11.2361,197
11.2361,196
11.2361,194
11.2361,191
11.2361,198
11.2517,205
11.2544,205
11.2565,197
11.2565,196
11.2565,197
11.2565,195
11.2565,191
11.2565,195
11.268,203
11.268,206
11.268,200
11.268,194
11.268,197
11.268,196
11.268,193
11.268,192
11.284,201
11.284,206
11.2884,203
11.2904,195
11.2924,196
11.2944,196
11.2964,194
11.2984,190
11.3004,198
11.3013,205
11.3044,205
11.3064,197
11.3084,196
11.3084,197
11.3084,195
11.3149,191
11.3149,195
11.3165,203
11.3199,206
11.3199,200
11.3199,194
11.3199,197
11.3199,196
11.3199,192
11.3323,192
11.3323,201
11.3343,206
11.3343,203
11.3343,195
11.3343,196
11.3343,196
11.3343,194
11.3483,190
11.3504,199
11.3521,205
11.3544,205
11.3564,197
11.3584,196
11.3604,197
11.3624,195
11.3644,192
11.3664,195
11.368,204
11.368,207
11.368,201
11.368,194
11.368,197
11.368,196
11.3803,193
11.3803,192
11.3803,201
11.3803,206
11.3803,203
11.3803,195
11.3803,197
11.3803,197
11.3963,194
11.3963,191
11.3963,199
11.4021,205
11.4021,206
11.4021,197
11.4021,196
11.4021,197
11.4122,195
11.4146,191
11.4166,196
11.4185,204
11.4198,206
11.4198,200
11.4198,194
11.4198,197
11.4283,196
11.4283,193
11.4283,192
11.4283,201
11.4283,206
11.4283,203
11.4283,195
11.4283,197
11.4443,196
11.4464,194
11.4484,191
11.4504,199
11.4521,205
11.4521,206
11.4521,197
11.4521,196
11.4602,197
11.4602,195
11.4602,191
11.4602,195
11.4602,203
11.4602,206
11.4602,200
11.4602,194
11.4763,197
11.478,196
11.4786,192
11.4824,192
11.4824,202
11.486,206
11.4884,203
11.4904,195
11.4924,196
11.494,196
11.4964,194
11.4979,191
11.5004,199
11.5004,205
11.5028,205
11.5028,197
11.5028,196
11.5028,197
11.5028,195
11.5028,191
11.5028,195
11.5181,203
11.5186,206
11.5186,200
11.5186,194
11.5186,197
11.5186,195
11.5186,192
11.5186,192
11.5342,201
11.5342,206
11.5384,203
11.5404,195
11.5424,196
11.5444,196
11.5464,194
11.5484,190
11.5504,199
11.5504,205
11.5504,205
11.5504,197
11.5504,196
11.5504,197
11.5504,195
11.5504,191
11.5662,196
11.568,204
11.568,206
11.5724,200
11.5744,194
11.5764,197
11.5784,196
11.5804,192
11.5824,192
11.5824,201
11.5824,206
11.5824,203
11.5824,195
11.5824,196
11.5824,196
11.5824,193
11.5985,191
11.5998,199
11.6015,205
11.6044,205
11.6064,197
11.6084,196
11.6104,197
11.6124,195
11.6141,191
11.6162,196
11.618,204
11.6197,206
11.6197,200
11.6197,194
11.6197,197
11.6197,195
11.6303,192
11.6303,192
11.6303,201
11.6303,206
11.6303,203
11.6303,195
11.6303,196
11.6303,196
11.6463,194
11.6463,191
11.6463,199
11.6463,205
11.6463,205
11.6463,196
11.6463,196
11.6463,197
11.6623,195
11.6623,191
11.6623,196
11.6623,204
11.6623,206
11.6623,200
11.6623,194
11.6623,197
11.6783,195
11.6783,192
11.6819,192
11.6839,202
11.6859,206
11.6879,203
11.6889,194
11.6909,197
11.6939,196
11.6939,194
11.6939,191
11.6939,199
11.6939,205
11.6939,205
11.6939,197
11.6939,196
11.7103,197
11.7124,195
11.7144,191
11.7164,196
11.718,204
11.7199,206
11.7224,200
11.7244,195
11.7263,197
11.7263,196
11.7263,192
11.7263,192
11.7263,202
11.7263,206
11.7263,203
11.7263,195
11.7423,196
11.7423,196
11.7423,193
11.7423,191
11.7423,199
11.7423,205
11.7423,205
11.7423,196
11.7583,196
11.7604,197
11.7604,195
11.7604,191
11.7604,196
11.7604,204
11.7604,206
11.7604,200
11.7741,194
11.7741,196
11.7741,195
11.7741,192
11.7741,192
11.7741,201
11.7741,206
11.7741,203
11.7902,194
11.7924,196
11.7944,196
11.7964,193
11.7984,191
11.8004,199
11.8013,206
11.8044,206
11.8064,197
11.8084,196
11.8104,197
11.8124,195
11.8144,192
11.8164,196
11.8164,204
11.8198,207
11.8223,200
11.8244,195
11.8244,197
11.8244,195
11.8244,192
11.8244,192
11.8244,202
11.8244,206
11.8382,203
11.8382,194
11.8382,196
11.8382,196
11.8382,193
11.8382,191
11.8382,199
11.8521,205
11.854,205
11.8564,196
11.8586,196
11.8604,197
11.8624,195
11.8639,191
11.8659,196
11.8659,204
11.8702,207
11.8702,200
11.8702,195
11.8702,197
11.8702,195
11.8702,192
11.8702,193
11.8702,202
11.8862,206
11.8884,203
11.8884,194
11.8884,196
11.8884,196
11.8884,193
11.8884,191
11.8884,199
11.902,206
11.902,205
11.902,196
11.902,196
11.902,197
11.902,195
11.902,191
11.902,196
11.9181,204
11.9198,206
11.9224,199
11.9244,195
11.9264,197
11.9284,195
11.9304,192
11.9324,193
11.9342,202
11.9342,206
11.9342,203
11.9342,194
11.9342,196
11.9342,196
11.9342,193
11.9342,191
11.9501,199
11.9514,205
11.9544,205
11.9549,196
11.9549,196
11.9549,197
11.9549,195
11.9549,191
11.9664,196
11.968,204
11.9699,206
11.9699,200
11.9699,195
11.9699,196
11.9699,195
11.9699,192
11.9825,193
11.9825,202
11.9825,206
11.9825,203
11.9825,194
11.9825,196
11.9825,196
11.9825,194
11.9986,191
12.0003,200
12.001,205
12.001,205
12.001,196
12.001,196
12.001,196
12.001,194
12.0146,191
12.0157,196
12.0192,204
12.0198,206
12.0224,199
12.0244,195
12.0264,197
12.0284,195
12.0304,192
12.0324,193
12.0342,202
12.0354,206
12.0384,203
12.0404,194
12.0404,197
12.0404,196
12.0462,193
12.0484,191
12.0484,200
12.0484,206
12.0484,205
12.0484,196
12.0484,196
12.0484,197
12.0621,195
12.0644,191
12.0644,197
12.0644,205
12.0644,207
12.0644,199
12.0644,195
12.0644,197
12.0783,195
12.0804,192
12.0824,193
12.0824,203
12.0824,207
12.0824,203
12.0824,194
12.0824,197
12.0942,196
12.0966,193
12.0984,191
12.1006,200
12.1006,206
12.1006,205
12.1006,196
12.1006,196
12.1103,197
12.1103,194
12.1103,191
12.1103,197
12.1103,204
12.1197,206
12.1224,199
12.1244,194
12.1264,197
12.1284,196
12.1304,192
12.1324,193
12.1342,202
12.1342,207
12.1342,203
12.1342,194
12.1422,197
12.1422,196
12.1422,193
12.1422,191
12.1422,200
12.1422,206
12.1422,205
12.1422,196
12.1584,196
12.1597,197
12.1624,194
12.1644,191
12.1644,197
12.1644,204
12.1644,206
12.1644,199
12.1744,195
12.1761,197
12.1784,195
12.1804,192
12.1824,193
12.1824,203
12.1824,206
12.1824,202
12.1905,194
12.1919,196
12.1919,196
12.1919,193
12.1919,191
12.1919,200
12.1919,206
12.1919,205
12.2064,196
12.2064,196
12.2064,197
12.2064,194
12.2064,191
12.2064,197
12.2064,204
12.2196,206
12.2223,199
12.2223,195
12.2223,197
12.2223,195
12.2223,192
12.2223,193
12.2223,202
12.2223,206
12.2383,202
12.2404,194
12.2424,197
12.2444,196
12.2464,193
12.2484,191
12.2504,200
12.2521,206
12.2544,205
12.2564,196
12.2584,196
12.2584,197
12.2584,194
12.2584,191
12.2584,197
12.2584,205
12.2584,206
12.2704,199
12.2704,195
12.2704,197
12.2704,195
12.2704,192
12.2704,193
12.2704,203
12.2861,206
12.2884,202
12.2904,194
12.2924,196
12.2944,196
12.2964,193
12.2984,191
12.3004,200
12.3021,206
12.3034,205
12.3063,195
12.3082,196
12.3101,197
12.3124,194
12.3137,191
12.3137,197
12.3182,205
12.3197,206
12.3217,199
12.3238,195
12.3238,197
12.3238,195
12.3238,192
12.3238,193
12.3342,202
12.3342,206
12.3342,202
12.3342,194
12.3342,197
12.3342,196
12.3342,193
12.3342,191
12.35,200
12.352,206
12.354,205
12.354,196
12.3579,196
12.3599,197
12.3599,194
12.3599,191
12.3659,197
12.3679,205
12.3679,206
12.3719,199
12.3739,195
12.3759,197
12.3759,195
12.3759,192
12.3819,193
12.3819,203
12.3819,206
12.3819,202
12.3819,194
12.3819,197
12.3819,196
12.3819,193
12.3979,191
12.3979,200
12.3979,206
12.3979,205
12.3979,195
12.3979,196
12.3979,197
12.3979,194
12.414,191
12.4159,197
12.4179,205
12.4199,206
12.4218,199
12.4218,195
12.4218,197
12.4218,195
12.4303,192
12.4319,193
12.4319,202
12.4319,206
12.4319,202
12.4319,194
12.4319,197
12.4319,196
12.446,193
12.446,191
12.446,200
12.446,206
12.446,205
12.446,195
12.446,196
12.446,197
12.4619,194
12.4639,191
12.4639,197
12.4639,204
12.4639,206
12.4639,198
12.4639,194
12.4639,196
12.4778,195
12.4804,191
12.4824,193
12.4824,202
12.4824,206
12.4824,202
12.4824,194
12.4824,197
12.4937,196
12.4964,194
12.4984,192
12.5004,201
12.5012,206
12.5044,205
12.5064,196
12.5084,196
12.5109,197
12.5119,194
12.5119,191
12.5119,198
12.5119,205
12.5201,206
12.5201,199
12.5201,195
12.5263,197
12.5281,195
12.5281,192
12.5281,194
12.5355,203
12.5355,206
12.5384,202
12.5404,194
12.5424,197
12.5444,196
12.5464,193
12.5484,191
12.5504,200
12.5504,206
12.5539,205
12.5564,195
12.5584,196
12.5604,197
12.5624,194
12.5644,191
12.5664,197
12.5679,205
12.5699,206
12.5724,199
12.5724,195
12.5764,197
12.5779,195
12.5779,192
12.5779,194
12.5779,203
12.5779,206
12.5779,202
12.5779,194
12.5924,197
12.5924,196
12.5924,193
12.5924,191
12.5924,200
12.5924,206
12.5924,204
12.5924,195
12.6083,196
12.6104,196
12.6124,194
12.6144,191
12.6164,197
12.6164,205
12.6164,206
12.6205,199
12.6244,195
12.6244,197
12.6244,195
12.6244,192
12.6244,194
12.6244,203
12.6244,206
12.6244,202
12.6404,194
12.6404,197
12.6439,196
12.6458,193
12.648,191
12.6495,200
12.6521,206
12.6539,205
12.6564,195
12.6579,196
12.6604,196
12.6604,194
12.6604,191
12.6604,197
12.6604,205
12.6604,206
12.6722,198
12.6722,195
12.6722,197
12.6722,195
12.6722,191
12.6722,194
12.6722,203
12.6722,206
12.6879,202
12.6899,194
12.6899,196
12.6899,196
12.6899,193
12.6899,191
12.6899,200
12.6899,206
12.7037,204
12.7059,195
12.7079,196
12.7099,196
12.7119,194
12.7139,191
12.7159,197
12.7159,205
12.7206,206
12.7206,198
12.7206,195
12.7206,197
12.7206,195
12.7206,191
12.7206,194
12.7206,203
12.7355,206
12.7379,202
12.7399,194
12.7419,197
12.7439,196
12.7459,193
12.7479,191
12.7499,201
12.7518,206
12.7518,204
12.7518,195
12.7518,196
12.7518,197
12.7518,194
12.7518,191
12.7518,198
12.7691,205
12.7691,206
12.7711,198
12.7711,195
12.7711,197
12.7711,195
12.7711,192
12.7711,194
12.7841,203
12.7861,207
12.7861,202
12.7861,194
12.7861,197
12.7861,196
12.7861,193
12.7861,191
12.8001,200
12.8013,206
12.8044,204
12.8064,195
12.8084,196
12.8104,196
12.8124,194
12.8144,191
12.8164,198
12.8179,205
12.8198,206
12.821,198
12.821,195
12.821,197
12.821,195
12.821,192
12.8325,194
12.8325,203
12.8325,207
12.8325,202
12.8325,194
12.8325,197
12.8325,196
12.8325,193
12.8484,191
12.8484,200
12.8504,206
12.8525,204
12.8525,195
12.8525,196
12.8525,197
12.8525,194
12.8525,191
12.8646,198
12.8684,205
12.8684,206
12.8684,198
12.8684,195
12.8684,197
12.8684,195
12.8807,192
12.8807,194
12.8807,203
12.8807,206
12.8807,201
12.8807,194
12.8807,197
12.8807,196
12.8965,193
12.8965,191
12.8965,201
12.9021,206
12.9021,204
12.9021,195
12.9021,196
12.9021,197
12.9125,194
12.9139,191
12.9164,198
12.9164,205
12.9164,206
12.9215,198
12.9215,195
12.9215,197
12.9286,195
12.9304,192
12.9324,194
12.9342,203
12.9342,206
12.9384,201
12.9384,194
12.9384,197
12.9445,196
12.9458,193
12.9484,191
12.9504,201
12.9521,206
12.9544,204
12.9544,195
12.9544,196
12.9605,197
12.9624,194
12.9644,191
12.9664,198
12.9679,205
12.9679,206
12.9679,198
12.9679,195
12.9765,197
12.9765,195
12.9765,192
12.9765,194
12.9765,203
12.9765,206
12.9765,201
12.9765,194
12.9925,197
12.9939,196
12.9964,193
12.9984,191
13.0004,201
13.0021,206
13.0021,204
13.0021,195
13.0085,196
13.0099,197
13.0124,194
13.0124,191
13.0124,198
13.0124,205
13.0124,206
13.0219,198
13.0244,195
13.0244,197
13.0244,195
13.0244,191
13.0244,194
13.0244,203
13.0244,206
13.0244,201
13.0403,194
13.0424,197
13.0444,196
13.0444,193
13.0444,191
13.0444,201
13.0521,206
13.0521,204
13.0564,195
13.0579,196
13.0599,196
13.0624,194
13.0644,191
13.0664,198
13.0692,205
13.0692,206
13.0724,198
13.0744,195
13.0764,197
13.0784,195
13.0804,191
13.0824,195
13.0857,203
13.0857,206
13.0857,201
13.0857,194
13.0857,197
13.0943,196
13.0964,193
13.0964,191
13.0964,201
13.0964,206
13.0964,204
13.0964,195
13.0964,196
13.1102,197
13.1102,194
13.1102,190
13.1102,198
13.1102,205
13.1102,206
13.1222,198
13.1222,195
13.1261,197
13.1284,195
13.1304,191
13.1324,195
13.1342,203
13.1342,207
13.1384,201
13.1384,194
13.1422,197
13.1422,196
13.1422,193
13.1422,191
13.1422,201
13.1422,206
13.1422,204
13.1422,195
13.1583,196
13.1583,196
13.1583,193
13.1644,190
13.1664,197
13.1679,204
13.1679,205
13.1724,197
13.1744,195
13.1764,196
13.1784,195
13.1784,191
13.1784,195
13.1784,203
13.1784,207
13.1784,201
13.1904,195
13.1919,197
13.1944,196
13.1959,193
13.1984,192
13.1999,201
13.1999,206
13.1999,204
13.2064,195
13.2064,196
13.2064,197
13.2064,194
13.2064,191
13.2064,198
13.2064,205
13.2064,206
13.2224,198
13.2224,195
13.2264,197
13.2279,195
13.2304,192
13.2324,195
13.234,203
13.234,206
13.2385,201
13.2385,194
13.2385,197
13.2385,196
13.2385,193
13.2385,192
13.2385,201
13.2385,206
13.2544,204
13.2564,195
13.2564,196
13.2564,197
13.2564,194
13.2564,191
13.2564,198
13.2564,205
13.2704,206
13.2704,198
13.2704,196
13.2704,197
13.2704,195
13.2704,191
13.2704,195
13.2704,203
13.2704,206
13.2884,201
13.2904,194
13.2904,197
13.2904,196
13.2904,193
13.2904,191
13.2904,201
13.302,206
13.3044,204
13.3044,195
13.3044,197
13.3044,196
13.3044,194
13.3044,190
13.3044,198
13.318,205
13.3198,205
13.3229,197
13.3244,196
13.3264,197
13.3284,195
13.3304,191
13.3324,195
13.3342,203
13.3342,206
13.3342,200
13.3342,194
13.3342,197
13.3342,195
13.3342,192
13.3342,191
13.3503,201
13.3513,205
13.3513,204
13.3513,195
13.3513,196
13.3513,196
13.3513,194
13.3513,190
13.3662,198
13.3662,205
13.3698,205
13.3726,197
13.3744,195
13.3764,197
13.3782,195
13.3804,191
13.382,195
13.382,203
13.382,206
13.382,200
13.382,194
13.382,197
13.382,196
13.382,193
13.3978,192
13.3978,201
13.3978,206
13.3978,204
13.3978,195
13.3978,196
13.3978,196
13.3978,194
13.4137,191
13.4137,199
13.4137,205
13.4137,206
13.4137,197
13.423,196
13.423,197
13.423,195
13.4298,191
13.4324,195
13.4342,203
13.4342,207
13.4384,201
13.4404,194
13.4424,197
13.4444,196
13.4464,193
13.4484,192
13.4504,201
13.4513,206
13.4549,203
13.4549,195
13.4549,196
13.4549,196
13.4624,194
13.4644,191
13.4664,199
13.4679,205
13.4679,205
13.4679,197
13.4679,196
13.4679,197
13.4782,195
13.4782,192
13.4782,195
13.4782,204
13.4782,207
13.4782,200
13.4782,194
13.4782,197
13.4943,196
13.4943,193
13.4943,192
13.4943,201
13.5021,206
13.5021,203
13.5021,195
13.5021,197
13.5103,196
13.5103,194
13.5103,190
13.5103,199
13.5103,205
13.5103,205
13.5229,197
13.5229,196
13.5264,197
13.5264,195
13.5264,191
13.5264,195
13.5264,203
13.5264,206
13.5264,200
13.5264,194
13.5425,197
13.5444,196
13.5464,193
13.5484,192
13.5484,201
13.5484,206
13.5484,204
13.5484,195
13.5584,196
13.5584,196
13.5584,194
13.5584,191
13.5584,199
13.5584,205
13.5584,205
13.5584,197
13.5745,196
13.5745,197
13.5745,195
13.5745,191
13.5745,195
13.5745,203
13.5745,206
13.5745,200
13.5904,194
13.5917,197
13.5944,196
13.5964,193
13.5984,192
13.6004,201
13.6004,206
13.6044,203
13.6064,195
13.6084,197
13.6104,196
13.6124,194
13.6144,191
13.6164,199
13.6179,205
13.6195,205
13.6195,197
13.6234,196
13.6234,197
13.6234,195
13.6234,191
13.6234,195
13.6342,203
13.6362,206
13.6381,200
13.6404,194
13.6404,197
13.6404,196
13.6404,192
13.6404,192
13.6501,201
13.6501,206
13.6501,203
13.6501,194
13.6501,196
13.6501,196
13.6501,194
13.6501,191
13.6662,199
13.6679,205
13.6697,205
13.6724,197
13.6724,196
13.6724,197
13.6724,195
13.6724,191
13.6822,196
13.6822,203
13.6822,206
13.6822,200
13.6822,194
13.6822,197
13.6822,196
13.6822,193
13.6982,192
13.7004,201
13.7004,206
13.7004,203
13.7004,194
13.7004,197
13.7004,197
13.7004,194
13.7143,191
13.7164,199
13.7164,205
13.7164,205
13.7164,197
13.7237,196
13.7237,197
13.7237,195
13.7303,191
13.7319,196
13.7342,203
13.7342,206
13.7384,200
13.7404,194
13.7424,197
13.7444,196
13.7464,192
13.7484,192
13.7504,202
13.7513,206
13.7544,203
13.7564,194
13.7584,197
13.7604,196
13.7624,194
13.7644,191
13.7644,199
13.7644,205
13.7644,205
13.7644,197
13.7644,196
13.7644,197
13.7783,195
13.7783,191
13.7783,196
13.7783,203
13.7783,206
13.7783,200
13.7783,195
13.7783,197
13.7942,196
13.7959,193
13.7984,192
13.8004,202
13.8021,206
13.8021,203
13.8021,194
13.8021,197
13.8103,196
13.8126,194
13.8146,191
13.8164,199
13.8179,205
13.8179,205
13.8179,197
13.8243,196
13.8263,197
13.8263,195
13.8263,191
13.8263,196
13.8263,204
13.8263,206
13.8263,200
13.8263,195
13.8422,197
13.8444,195
13.8466,192
13.8484,192
13.85,202
13.8514,206
13.8514,203
13.8514,194
13.8584,196
13.8584,196
13.8584,193
13.8584,190
13.8584,199
13.8584,204
13.8584,204
13.8584,196
13.8744,195
13.8744,196
13.8744,194
13.8744,191
13.8744,196
13.8744,204
13.8863,207
13.8883,201
13.8901,195
13.8921,198
13.8941,196
13.8941,193
13.8941,193
13.8996,202
13.9017,206
13.9043,203
13.906,194
13.906,197
13.9095,196
13.9113,194
13.9148,191
13.9165,199
13.9182,205
13.9182,205
13.9223,196
13.9244,196
13.9264,197
13.9264,195
13.9264,191
13.9264,196
13.9264,204
13.935,206
13.9381,200
13.9399,195
13.9413,197
13.9413,196
13.9413,193
13.9413,192
13.9413,202
13.9413,206
13.954,203
13.954,194
13.954,197
13.954,196
13.954,193
13.954,191
13.954,199
13.954,205
13.9696,205
13.9719,196
13.9739,196
13.9759,197
13.9779,195
13.9779,191
13.9779,196
13.9779,204
13.9857,206
13.9879,200
13.9879,195
13.9879,197
13.9879,196
13.9879,192
13.9879,193
13.9879,202
14.0019,206
14.0019,203
14.0019,194
14.0019,197
14.0019,196
14.0019,193
14.0019,191
14.0019,199
14.0177,205
14.0177,205
14.0177,196
14.0177,196
14.0177,197
14.0268,195
14.0268,191
14.0268,196
14.0345,204
14.0351,206
14.0351,199
14.0351,195
14.0351,197
14.0351,196
14.0351,192
14.0351,193
14.0495,202
14.0512,206
14.0539,202
14.0539,194
14.0539,197
14.0539,196
14.0539,193
14.0539,191
14.0658,199
14.0679,205
14.0679,205
14.0724,196
14.0744,196
14.0744,197
14.0744,195
14.0744,191
14.0818,196
14.0818,204
14.0818,206
14.0818,199
14.0818,194
14.0818,197
14.0818,195
14.0818,192
14.0979,193
14.1004,202
14.1004,206
14.1044,202
14.1064,194
14.1084,196
14.1084,196
14.1084,193
14.1139,191
14.1163,199
14.1193,205
14.1193,205
14.122,196
14.1244,196
14.1269,197
14.1284,194
14.1304,191
14.1324,197
14.1341,204
14.1356,206
14.1384,200
14.1404,195
14.1424,197
14.1444,196
14.1464,192
14.148,193
14.148,202
14.148,206
14.148,203
14.148,194
14.148,197
14.148,196
14.1622,194
14.1643,191
14.1643,199
14.1643,206
14.1643,205
14.1643,196
14.1643,196
14.1643,197
14.1783,195
14.1783,191
14.1783,197
14.1783,204
14.1783,206
14.1783,199
14.1783,195
14.1783,197
14.1943,195
14.1964,192
14.1984,193
14.2004,202
14.2021,206
14.2021,202
14.2021,194
14.2021,197
14.2102,196
14.2118,193
14.2144,191
14.2164,200
14.2179,206
14.2198,205
14.2198,196
14.2198,196
14.2263,197
14.2274,195
14.2274,191
14.2274,197
14.2274,204
14.2274,206
14.2274,199
14.2274,195
14.2423,197
14.2423,195
14.2423,192
14.2423,193
14.2423,202
14.2423,206
14.2423,202
14.2423,194
14.2583,197
14.2598,196
14.2624,193
14.2644,191
14.2664,200
14.2679,205
14.2679,205
14.2679,196
14.2742,196
14.2759,197
14.2759,194
14.2759,191
14.2759,197
14.2759,204
14.2759,206
14.2759,199
14.2901,195
14.2901,197
14.2901,195
14.2901,192
14.2901,193
14.2901,202
14.2901,206
14.2901,202
14.306,194
14.306,197
14.306,196
14.306,193
14.306,191
14.306,200
14.306,205
14.306,205
14.3223,196
14.3223,196
14.3264,197
14.3289,195
14.3304,191
14.3304,197
14.3304,204
14.3304,206
14.3383,199
14.3383,195
14.3383,197
14.3383,195
14.3383,192
14.3383,193
14.3383,202
14.3521,206
14.3543,202
14.3543,194
14.3543,197
14.3543,196
14.3543,193
14.3543,191
14.3543,200
14.3543,205
14.3701,205
14.3713,195
14.3732,196
14.3766,197
14.3784,194
14.3806,191
14.3824,197
14.3824,204
14.3861,206
14.3884,199
14.3884,195
14.3884,197
14.3884,195
14.3884,192
14.3884,193
14.3884,202
14.4022,206
14.4042,202
14.4042,194
14.4042,197
14.4042,196
14.4042,193
14.4042,191
14.4042,200
14.4182,206
14.4182,205
14.4182,195
14.4182,196
14.4182,197
14.4287,194
14.4287,191
14.4287,197
14.4342,204
14.4363,206
14.4363,199
14.4363,195
14.4363,197
14.4363,195
14.4363,192
14.4363,193
14.4504,202
14.4504,206
14.4504,202
14.4504,194
14.4504,197
14.4504,196
14.4504,193
14.4504,191
14.4664,200
14.4684,205
14.4699,205
14.4716,195
14.4716,196
14.4716,197
14.4716,194
14.4716,191
14.4824,197
14.4824,204
14.4863,206
14.4863,199
14.4863,195
14.4863,197
14.4863,196
14.4863,192
14.4984,193
14.5,203
14.5015,206
14.5015,202
14.5015,194
14.5015,197
14.5015,196
14.5015,193
14.5144,191
14.5164,200
14.5176,205
14.5176,204
14.5176,196
14.5176,196
14.5176,197
14.5176,194
14.5303,191
14.5324,197
14.5324,204
14.5324,206
14.5324,199
14.5324,195
14.5324,197
14.5324,195
14.5464,192
14.5464,193
14.5464,203
14.5464,206
14.5464,202
14.5464,194
14.5464,196
14.5464,195
14.5622,192
14.5622,191
14.5622,199
14.5622,205
14.5622,204
14.5622,195
14.5622,196
14.5622,196
14.5784,194
14.5799,191
14.5824,198
14.5824,205
14.5824,207
14.5824,199
14.5824,196
14.5824,197
14.5943,196
14.5943,192
14.5982,194
14.6001,203
14.6018,206
14.6037,202
14.6057,194
14.6075,197
14.6103,196
14.6124,193
14.6144,191
14.6144,200
14.6144,206
14.6144,204
14.6144,195
14.6144,196
14.6264,197
14.6264,194
14.6296,191
14.6296,197
14.6296,204
14.6296,206
14.6296,198
14.6296,195
14.6421,197
14.6441,195
14.6451,192
14.6479,194
14.6499,203
14.6512,206
14.6538,202
14.6559,194
14.6579,197
14.6579,196
14.6619,193
14.6639,191
14.6646,200
14.6693,205
14.6693,204
14.6693,195
14.6693,196
14.6693,197
14.6778,194
14.6778,191
14.6778,197
14.6778,205
14.6861,206
14.6861,199
14.6861,195
14.6861,197
14.6939,195
14.6939,192
14.6939,194
14.6939,203
14.6939,206
14.6939,202
14.6939,194
14.6939,197
14.7096,196
14.7096,193
14.7096,191
14.7096,200
14.7096,206
14.7096,204
14.7096,195
14.7096,196
14.7262,196
14.7279,194
14.7301,191
14.7301,197
14.7301,205
14.7301,206
14.7301,198
14.7301,195
14.7418,197
14.7444,195
14.7464,192
14.7484,194
14.7504,203
14.7504,206
14.7544,202
14.7564,194
14.7584,197
14.7604,196
14.7624,193
14.7644,191
14.7664,200
14.7679,205
14.7679,204
14.7679,195
14.7745,196
14.7759,197
14.7759,194
14.7759,191
14.7759,198
14.7759,204
14.7759,206
14.7759,198
14.7904,195
14.7904,197
14.7904,195
14.7904,192
14.7904,194
14.7904,203
14.7904,206
14.7904,201
14.8066,194
14.8077,197
14.8104,196
14.8124,193
14.8124,191
14.8124,200
14.8124,206
14.8124,204
14.8224,195
14.8244,196
14.8264,197
14.8284,194
14.8304,191
14.8304,198
14.8304,205
14.8304,206
14.8382,198
14.8404,195
14.8404,197
14.8404,195
14.8404,192
14.8404,194
14.8404,203
14.8521,207
14.8543,202
14.8564,194
14.8584,197
14.8604,196
14.8604,193
14.8604,191
14.8604,201
14.8604,206
14.87,204
14.8724,195
14.8744,196
14.8764,197
14.8764,194
14.8764,191
14.8764,198
14.8764,205
14.8861,206
14.8861,198
14.8861,195
14.8861,197
14.8861,195
14.8861,192
14.8861,194
14.8861,203
14.902,206
14.902,201
14.902,194
14.902,197
14.902,196
14.902,193
14.902,191
14.9165,201
14.9181,205
14.9194,204
14.9194,195
14.9194,196
14.9194,197
14.9194,194
14.9305,191
14.9305,198
14.9339,205
14.9339,206
14.9339,198
14.9339,195
14.9339,197
14.9339,195
14.9339,192
14.9339,194
14.9497,203
14.9512,206
14.9544,201
14.9544,194
14.9544,197
14.9544,196
14.9544,193
14.9544,191
14.9657,201
14.9679,206
14.9679,204
14.9679,195
14.9679,196
14.9679,197
14.9679,194
14.9679,191
14.9817,198
14.9817,205
14.9817,206
14.9817,198
14.9817,195
14.9817,197
14.9817,195
14.9817,192
14.9977,194
15.0004,203
15.0013,206
15.0044,201
15.0064,194
15.0084,197
15.0104,196
15.0104,193
15.0138,191
15.0164,201
15.0179,206
15.0198,204
15.0198,195
15.0198,196
15.0198,197
15.0198,194
15.0297,191
15.0313,198
15.0333,205
15.0354,206
15.0374,198
15.0394,195
15.0414,197
15.0435,195
15.0455,191
15.0455,194
15.0455,203
15.0455,206
15.0529,201
15.0529,194
15.0529,197
15.0529,196
15.0617,193
15.0617,191
15.0617,201
15.0617,206
15.0695,204
15.0695,195
15.0695,196
15.0695,196
15.0777,194
15.0794,191
15.0826,198
15.084,205
15.086,206
15.088,198
15.0904,195
15.092,197
15.0938,195
15.0961,192
15.0961,195
15.0961,203
15.0961,206
15.0961,201
15.0961,194
15.0961,197
15.1098,196
15.1118,193
15.1118,191
15.1118,201
15.1118,206
15.1118,204
15.1118,195
15.1245,196
15.1245,196
15.1245,194
15.1245,190
15.1307,198
15.1307,205
15.1307,206
15.1307,198
15.1403,195
15.1403,197
15.1403,195
15.1403,191
15.1403,195
15.1403,203
15.1403,206
15.1403,201
15.156,194
15.1579,197
15.1599,196
15.1599,193
15.1599,192
15.1599,201
15.1599,206
15.1599,204
15.1719,195
15.1741,196
15.1751,196
15.1751,194
15.1751,191
15.1751,198
15.1751,205
15.1869,206
15.1869,198
15.1889,195
15.1909,197
15.1939,195
15.1959,192
15.199,195
15.1999,203
15.1999,206
15.2033,201
15.2033,194
15.2033,197
15.2033,196
15.2118,193
15.2144,192
15.2159,201
15.2179,206
15.2179,204
15.2221,195
15.2244,196
15.2264,196
15.228,194
15.2309,190
15.232,198
15.232,205
15.232,205
15.232,197
15.232,195
15.232,196
15.2443,194
15.2443,191
15.2443,194
15.2443,203
15.2521,206
15.2521,200
15.2521,194
15.2521,197
15.2603,196
15.262,193
15.2644,192
15.2659,202
15.2679,207
15.2698,204
15.2698,195
15.2698,197
15.2763,197
15.2763,194
15.2763,191
15.2763,198
15.2763,205
15.2763,206
15.2763,198
15.2763,195
15.2923,197
15.2923,195
15.2923,192
15.2923,195
15.2923,203
15.3021,206
15.3021,201
15.3021,194
15.3083,197
15.3104,196
15.3124,193
15.3144,191
15.3164,201
15.3179,206
15.3198,204
15.3224,195
15.3243,197
15.3266,197
15.3286,194
15.3286,191
15.3311,199
15.3311,205
15.3311,205
15.3311,197
15.3402,196
15.3402,197
15.3402,195
15.3402,191
15.3402,195
15.3402,203
15.3402,206
15.3402,201
15.3564,194
15.3564,197
15.3564,196
15.3564,193
15.3564,192
15.3564,201
15.3564,206
15.3564,204
15.3723,195
15.3723,196
15.3723,196
15.3723,194
15.3723,190
15.3723,198
15.3723,205
15.3723,206
15.3884,197
15.3892,196
15.3913,197
15.3944,195
15.3964,191
15.3984,195
15.4004,203
15.401,206
15.4044,200
15.4064,194
15.4064,197
15.4064,196
15.4064,193
15.4064,192
15.4064,201
15.4064,206
15.4204,204
15.4204,195
15.4204,196
15.4204,196
15.4204,194
15.4204,190
15.4311,199
15.4311,205
15.436,205
15.4384,197
15.4384,195
15.4384,197
15.4384,195
15.4384,191
15.4384,195
15.4384,203
15.4521,206
15.4521,200
15.4521,194
15.4521,197
15.4521,196
15.4521,192
15.4521,192
15.4521,201
15.468,206
15.468,203
15.468,195
15.468,196
15.468,196
15.468,194
15.468,190
15.468,199
15.4842,205
15.4842,205
15.4842,197
15.4842,196
15.4842,197
15.4842,195
15.4842,191
15.4842,195
15.5003,203
15.5003,206
15.504,201
15.5055,194
15.5081,197
15.51,196
15.5119,193
15.5138,192
15.5164,201
15.5179,206
15.5179,203
15.5221,195
15.5239,197
15.5256,197
15.5271,194
15.5271,191
15.5314,199
15.5324,205
15.5324,206
15.5324,197
15.5324,196
15.5324,197
15.5324,195
15.5324,192
15.5483,195
15.5483,204
15.5483,206
15.5483,200
15.5483,194
15.5483,197
15.5483,196
15.5483,193
15.5639,192
15.5659,201
15.5678,206
15.5678,203
15.5719,195
15.5739,197
15.5759,196
15.5779,194
15.5799,191
15.5799,199
15.5799,205
15.586,205
15.586,197
15.586,196
15.586,197
15.586,195
15.5959,191
15.5959,195
15.5959,203
15.5959,206
15.5959,200
15.5959,194
15.5959,197
15.5959,196
15.6119,193
15.6139,192
15.6159,201
15.6178,206
15.6178,203
15.6178,195
15.6178,196
15.6178,196
15.6285,194
15.6292,191
15.6319,199
15.6319,205
15.6319,205
15.6319,197
15.6319,196
15.6319,197
15.6437,195
15.6437,191
15.6437,196
15.6437,203
15.6437,206
15.6529,200
15.6529,194
15.6529,197
15.6597,196
15.6622,193
15.6622,192
15.6622,201
15.6622,206
15.6622,203
15.6622,195
15.6622,197
15.6758,196
15.677,194
15.679,191
15.679,199
15.679,205
15.679,205
15.679,197
15.679,196
15.6918,197
15.6918,195
15.6918,191
15.6918,196
15.6918,204
15.6918,207
15.6918,200
15.6918,195
15.7077,197
15.7096,196
15.7124,192
15.7144,192
15.7164,201
15.7192,206
15.7192,203
15.7224,195
15.7244,197
15.726,196
15.7273,194
15.7308,191
15.732,199
15.7338,205
15.7354,205
15.7379,197
15.7404,196
15.7424,197
15.7439,195
15.7439,191
15.7439,196
15.7439,204
15.7513,206
15.7513,200
15.7513,194
15.7513,197
15.7513,196
15.7513,192
15.7513,192
15.7513,202
15.7673,206
15.7673,203
15.7673,194
15.7673,197
15.7673,196
15.7673,194
15.7673,191
15.7673,199
15.7831,205
15.7831,205
15.7831,196
15.7831,196
15.7831,197
15.7831,195
15.7831,191
15.7831,196
15.7989,204
15.7989,206
15.7989,200
15.7989,195
15.7989,197
15.7989,195
15.7989,193
15.7989,192
15.815,202
15.815,206
15.815,203
15.815,195
15.815,196
15.815,196
15.815,194
15.815,191
15.8326,199
15.8339,205
15.8339,205
15.8379,196
15.8379,196
15.8379,197
15.8379,195
15.8379,191
15.8479,196
15.8479,204
15.8479,206
15.8479,200
15.8479,195
15.8479,197
15.8479,196
15.8628,192
15.8628,193
15.8664,202
15.8664,206
15.8664,203
15.8664,195
15.8664,197
15.8664,196
15.8786,194
15.8804,191
15.8824,199
15.8824,205
15.8824,205
15.8824,196
15.8824,196
15.8824,197
15.8946,195
15.8946,191
15.8946,196
15.8946,204
15.9021,206
15.9021,200
15.9021,195
15.9021,197
15.9106,196
15.9106,192
15.9106,192
15.9189,202
15.9189,206
15.9189,202
15.9189,194
15.9189,196
15.9264,196
15.9264,193
15.9264,190
15.9264,199
15.9331,205
15.9331,205
15.9331,196
15.9331,196
15.9423,197
15.9423,195
15.9461,192
15.9461,197
15.9461,204
15.9461,207
15.9461,200
15.9461,195
15.9582,197
15.9603,196
15.9603,192
15.9603,193
15.9603,202
15.9603,206
15.9603,203
15.9603,194
15.9741,197
15.9741,196
15.9741,193
15.9741,191
15.9741,199
15.9741,205
15.9741,205
15.9741,196
15.9902,196
15.9923,197
15.9943,195
15.9963,191
15.9983,196
16.0003,204
16.0021,206
16.0043,199
16.0063,195
16.0083,197
16.0103,196
16.0123,192
16.0123,193
16.0123,202
16.0123,206
16.0123,203
16.0222,194
16.0222,197
16.0222,196
16.0222,194
16.0222,191
16.0222,199
16.033,205
16.033,205
16.0383,196
16.0383,196
16.0404,197
16.0404,195
16.0404,191
16.0404,196
16.0404,204
16.0404,206
16.0544,199
16.0544,195
16.0544,197
16.0544,195
16.0544,192
16.0544,193
16.0544,202
16.0544,206
16.07,203
16.0719,194
16.0743,197
16.0763,196
16.0763,193
16.0763,191
16.0763,199
16.0763,205
16.0861,205
16.0883,196
16.0903,196
16.0923,197
16.0943,194
16.0963,191
16.0983,196
16.0983,204
16.1021,206
16.1037,199
16.1037,195
16.1071,197
16.1071,196
16.1071,192
16.1071,193
16.1071,202
16.118,206
16.118,203
16.118,194
16.118,197
16.118,196
16.118,194
16.118,191
16.118,199
16.1332,205
16.1332,205
16.1332,196
16.1332,196
16.1332,197
16.1332,195
16.1332,191
16.1332,197
16.149,204
16.149,206
16.153,199
16.153,195
16.153,197
16.153,195
16.153,192
16.1648,193
16.1663,202
16.1679,206
16.1679,202
16.1679,194
16.1679,197
16.1679,196
16.1679,193
16.1808,191
16.1808,199
16.1808,205
16.1808,205
16.1808,196
16.1808,196
16.1808,197
16.1808,195
16.1967,191
16.198,197
16.2003,204
16.201,206
16.2043,199
16.2063,195
16.2083,197
16.2103,196
16.2124,192
16.2141,193
16.2161,202
16.2179,206
16.2179,203
16.2179,194
16.2179,197
16.2179,196
16.2294,193
16.2294,191
16.2294,200
16.2333,205
16.2333,205
16.2333,196
16.2333,196
16.2333,197
16.2443,195
16.2443,191
16.2469,197
16.2489,204
16.251,206
16.2534,199
16.2534,195
16.2534,197
16.2534,196
16.2615,192
16.2615,193
16.2659,202
16.269,206
16.269,202
16.2723,194
16.2743,197
16.2763,196
16.2775,193
16.2775,191
16.2775,200
16.2775,205
16.2861,205
16.2861,196
16.2861,196
16.2861,197
16.2934,195
16.2934,191
16.2934,197
16.2934,204
16.2934,206
16.2934,199
16.2934,195
16.2934,197
16.3094,196
16.3094,192
16.3094,193
16.3094,202
16.3094,206
16.3094,202
16.3094,194
16.3094,197
16.3258,196
16.3283,193
16.3283,191
16.3283,200
16.3337,205
16.3337,205
16.3337,196
16.3337,196
16.342,197
16.3444,194
16.3454,191
16.3454,197
16.3454,204
16.3454,206
16.3454,199
16.3454,195
16.3575,197
16.3596,195
16.3596,192
16.3596,193
16.3596,202
16.3596,206
16.3596,202
16.3596,194
16.3737,197
16.3764,196
16.3764,194
16.3764,191
16.3764,200
16.3764,205
16.3764,205
16.3764,195
16.39,196
16.39,197
16.39,194
16.39,191
16.39,197
16.39,204
16.39,206
16.39,199
16.4059,195
16.4059,197
16.4059,195
16.4059,192
16.4059,193
16.4059,202
16.4059,206
16.4059,202
16.4222,194
16.4244,197
16.4244,196
16.4244,193
16.4244,191
16.4244,200
16.4341,205
16.4341,205
16.4382,195
16.4382,196
16.4382,197
16.4382,194
16.4382,191
16.4382,197
16.4382,205
16.4521,206
16.4541,199
16.4541,195
16.4541,197
16.4541,195
16.4541,192
16.4541,193
16.4541,202
16.4541,206
16.4695,202
16.4719,194
16.4744,197
16.4764,196
16.4764,193
16.4764,191
16.4764,200
16.4764,205
16.4852,204
16.4886,195
16.4906,196
16.4926,197
16.4946,194
16.4946,191
16.4946,197
16.5009,204
16.5009,206
16.5009,199
16.5009,195
16.5009,197
16.5009,195
16.5009,192
16.5009,193
16.5167,203
16.5167,206
16.5196,202
16.5196,194
16.5239,197
16.5264,196
16.5264,193
16.5264,191
16.5326,200
16.5338,205
16.5348,204
16.5384,195
16.5404,196
16.5424,197
16.5424,194
16.5424,191
16.5486,197
16.5486,205
16.5513,206
16.5513,199
16.5513,195
16.5513,197
16.5513,196
16.5513,192
16.5646,193
16.5646,203
16.5646,206
16.5646,202
16.5646,194
16.5646,197
16.5646,196
16.5646,193
16.5806,191
16.5824,200
16.5824,206
16.5824,204
16.5824,195
16.5824,196
16.5824,196
16.5824,194
16.5966,191
16.5984,197
16.6004,204
16.6021,206
16.6044,198
16.6064,195
16.6084,196
16.6104,195
16.6124,191
16.6124,193
16.6124,202
16.6124,205
16.6124,201
16.6124,193
16.6124,196
16.6124,196
16.6282,193
16.6304,191
16.6324,200
16.6324,206
16.6351,205
16.6351,196
16.6351,197
16.6351,198
16.6442,195
16.6442,191
16.6442,198
16.6442,205
16.6521,206
16.6521,199
16.6521,195
16.6521,197
16.6602,196
16.6624,192
16.6644,194
16.6644,203
16.6644,206
16.6644,202
16.6644,194
16.6644,197
16.6763,196
16.6784,193
16.6784,191
16.6784,200
16.6784,205
16.6784,204
16.6784,195
16.6784,196
16.6924,197
16.6924,194
16.6924,191
16.6924,197
16.6924,204
16.6924,206
16.6924,199
16.6924,195
16.7083,197
16.7083,195
16.7083,192
16.7083,194
16.7083,203
16.7083,206
16.7083,202
16.7083,194
16.7242,197
16.7264,196
16.7264,193
16.7264,191
16.7264,200
16.7264,205
16.7352,204
16.7352,195
16.7401,196
16.7424,197
16.7444,194
16.7464,191
16.7484,198
16.7504,205
16.7521,206
16.7521,198
16.756,195
16.7584,197
16.7604,195
16.7604,192
16.7604,194
16.7604,203
16.7604,206
16.7604,202
16.7722,194
16.7735,197
16.7744,196
16.7779,193
16.7804,191
16.7824,200
16.7824,205
16.7859,204
16.7884,195
16.7898,196
16.7924,197
16.7944,194
16.7964,191
16.7984,198
16.8004,204
16.8017,206
16.8039,198
16.8064,195
16.8064,197
16.8104,195
16.8104,192
16.8104,194
16.8104,203
16.8104,206
16.8196,201
16.8196,194
16.8196,197
16.8263,196
16.8279,193
16.8304,191
16.8324,200
16.8324,205
16.8357,204
16.8357,195
16.8357,196
16.8423,197
16.8423,194
16.8423,190
16.8423,198
16.8423,204
16.8423,206
16.8423,198
16.8423,195
16.8582,197
16.8604,195
16.8624,192
16.8624,194
16.8624,203
16.8624,206
16.8624,201
16.8624,194
16.8743,197
16.876,196
16.8784,193
16.8804,191
16.8824,201
16.8824,206
16.8824,204
16.8824,195
16.8901,196
16.8924,197
16.8924,194
16.8924,191
16.8924,198
16.8924,205
16.8924,206
16.8924,198
16.9063,195
16.9084,197
16.9084,195
16.9084,192
16.9084,194
16.9084,203
16.9084,206
16.9084,201
16.9222,194
16.9238,197
16.9264,196
16.9264,193
16.9264,191
16.9264,201
16.9264,205
16.936,204
16.9382,195
16.9382,196
16.9382,197
16.9382,194
16.9382,191
16.9382,198
16.9382,205
16.9521,206
16.9541,198
16.9541,195
16.9541,197
16.9541,195
16.9541,192
16.9541,194
16.9541,203
16.9541,206
16.97,201
16.9724,194
16.9744,197
16.9764,196
16.9764,193
16.9764,191
16.9764,200
16.9764,206
16.9861,204
16.9884,195
16.9904,196
16.9904,197
16.9904,194
16.9904,191
16.9904,198
16.9904,205
17.0021,206
17.0021,198
17.0021,195
17.0021,197
17.0021,195
17.0021,192
17.0021,194
17.0021,203
17.0181,206
17.0181,201
17.0181,194
17.0181,197
17.0181,196
17.0181,193
17.0181,191
17.0181,201
17.0343,206
17.0363,204
17.0382,195
17.0382,196
17.0382,197
17.0382,194
17.0382,191
17.0382,198
17.0504,205
17.0504,206
17.0504,198
17.0504,195
17.0504,197
17.0504,195
17.0504,192
17.0504,194
17.0664,203
17.0664,206
17.0664,201
17.0664,194
17.0664,197
17.0664,196
17.0664,193
17.0664,191
17.0823,201
17.0838,206
17.0849,204
17.0883,195
17.0903,196
17.0923,197
17.0941,194
17.0941,191
17.0979,198
17.1004,205
17.1004,206
17.1038,198
17.1059,196
17.1079,197
17.1099,195
17.1119,192
17.1139,195
17.1139,203
17.1139,206
17.1139,201
17.1139,194
17.1139,197
17.1139,196
17.1139,193
17.1299,192
17.1299,201
17.1299,206
17.1362,204
17.1362,195
17.1362,196
17.1362,197
17.1362,194
17.146,191
17.1478,198
17.1478,205
17.1478,206
17.1478,198
17.1478,195
17.1478,197
17.1478,195
17.1619,191
17.1638,194
17.1659,203
17.1678,206
17.1678,201
17.1678,194
17.1678,197
17.1678,196
17.1779,193
17.1779,191
17.1779,201
17.1779,206
17.1779,204
17.1779,195
17.1779,196
17.1779,196
17.1939,194
17.1939,191
17.1939,198
17.1939,205
17.1939,206
17.1939,198
17.1939,195
17.1939,197
17.2107,195
17.2112,192
17.2112,195
17.2112,203
17.2112,206
17.2112,201
17.2112,194
17.2112,197
17.2262,196
17.2282,193
17.2297,191
17.2324,201
17.2345,206
17.2363,204
17.2375,195
17.2393,196
17.2423,197
17.2444,194
17.2464,190
17.2479,198
17.2496,205
17.2514,206
17.2539,198
17.2559,196
17.2579,197
17.2579,195
17.2579,191
17.2579,195
17.2579,203
17.2684,206
17.2684,201
17.2684,194
17.2739,197
17.2759,196
17.2779,193
17.2799,191
17.2819,201
17.2819,206
17.2819,204
17.2819,195
17.2899,196
17.2899,197
17.2899,194
17.2899,191
17.2899,198
17.2899,205
17.2899,205
17.2899,197
17.3059,195
17.3083,197
17.3083,195
17.3083,191
17.3135,194
17.3135,202
17.3191,206
17.3191,200
17.3219,194
17.3239,196
17.3259,195
17.3279,192
17.3299,192
17.3319,201
17.3366,206
17.3366,204
17.3366,196
17.3366,197
17.3366,197
17.3439,195
17.3439,191
17.3439,199
17.3439,205
17.3517,205
17.3517,197
17.3517,195
17.3517,197
17.3605,195
17.361,192
17.363,195
17.363,203
17.363,207
17.3696,201
17.3696,194
17.3696,197
17.3759,196
17.3784,193
17.3784,192
17.3784,201
17.3784,206
17.3784,204
17.3784,195
17.3784,197
17.3918,197
17.3944,194
17.3944,191
17.3944,199
17.3944,205
17.4021,206
17.4021,197
17.4021,195
17.4077,197
17.4077,195
17.4077,191
17.4077,195
17.4077,203
17.4077,207
17.4077,201
17.4077,194
17.4237,197
17.4264,196
17.4264,193
17.4264,192
17.4264,201
17.4264,206
17.4264,204
17.437,195
17.4397,197
17.4397,196
17.4397,194
17.4397,190
17.4397,199
17.4397,205
17.4521,205
17.4521,197
17.4559,196
17.4584,197
17.4604,195
17.4624,191
17.4624,195
17.4624,204
17.4624,206
17.4624,201
17.4721,194
17.4746,197
17.4764,196
17.4764,193
17.4764,192
17.4764,201
17.4764,206
17.4764,203
17.4884,195
17.4904,196
17.4924,196
17.4924,194
17.4924,190
17.4924,198
17.4924,205
17.5021,205
17.5043,197
17.5043,196
17.5084,197
17.5104,195
17.5124,191
17.5144,195
17.5164,203
17.5179,206
17.5199,200
17.5199,194
17.5199,197
17.5199,195
17.5199,193
17.5199,192
17.5199,201
17.5199,206
17.5355,203
17.5389,195
17.5404,196
17.5424,196
17.5444,194
17.5464,190
17.5484,199
17.5504,205
17.5514,205
17.5544,197
17.5544,196
17.5544,197
17.5544,195
17.5544,191
17.5544,195
17.5544,203
17.5671,207
17.5671,200
17.5671,194
17.5671,197
17.5671,196
17.5671,193
17.5671,192
17.5828,201
17.5828,206
17.5848,203
17.5868,195
17.5889,197
17.5889,196
17.5889,194
17.5889,191
17.5989,199
17.6004,205
17.6004,205
17.6044,197
17.6064,196
17.6084,197
17.6104,195
17.6124,191
17.6144,195
17.6164,204
17.6179,207
17.6179,200
17.6224,195
17.6244,197
17.6264,196
17.6284,193
17.6304,192
17.6324,201
17.6341,206
17.6341,203
17.6389,195
17.6399,197
17.6424,196
17.6424,194
17.6463,191
17.6484,199
17.6504,205
17.6521,205
17.6544,197
17.6564,196
17.6584,197
17.6604,195
17.6624,191
17.6644,196
17.6664,204
17.6679,206
17.6679,200
17.6679,194
17.6679,197
17.6679,196
17.6782,193
17.6782,192
17.6782,201
17.6782,206
17.6782,203
17.6782,194
17.6782,197
17.6782,196
17.6942,194
17.6942,191
17.6942,199
17.6942,205
17.7021,205
17.7021,197
17.7021,196
17.7021,197
17.7102,195
17.7114,191
17.7141,195
17.7161,204
17.7181,206
17.7195,200
17.7215,194
17.7235,197
17.7255,195
17.7268,192
17.7268,192
17.7268,201
17.7268,206
17.7268,203
17.7386,195
17.7386,197
17.7415,196
17.7415,194
17.7415,191
17.7415,199
17.7415,205
17.7415,205
17.7415,197
17.7415,196
17.7578,197
17.7603,195
17.7623,191
17.7643,196
17.7663,204
17.7679,207
17.7679,200
17.7723,194
17.7743,197
17.7763,196
17.7783,192
17.7803,192
17.7823,201
17.7823,206
17.7823,203
17.7883,195
17.7883,196
17.7883,196
17.7883,194
17.7883,191
17.7883,199
17.7883,205
17.7883,205
17.8044,197
17.8044,196
17.8072,197
17.8097,195
17.8115,191
17.8142,196
17.8161,204
17.8179,206
17.8199,200
17.8199,194
17.8199,197
17.8199,196
17.8199,192
17.8199,192
17.8199,202
17.8199,206
17.8359,203
17.8379,194
17.8398,197
17.8419,196
17.8419,194
17.8419,191
17.8419,199
17.8419,205
17.8518,205
17.8538,196
17.8559,196
17.8579,197
17.8599,194
17.8619,191
17.8639,196
17.8639,204
17.868,206
17.87,200
17.8708,195
17.8708,197
17.8708,195
17.8708,192
17.8708,192
17.8708,202
17.8839,206
17.8839,203
17.8879,194
17.8899,196
17.8919,196
17.8939,194
17.8939,191
17.8939,199
17.9,205
17.9013,205
17.9037,196
17.9059,196
17.9079,197
17.9099,195
17.9119,191
17.9139,196
17.916,204
17.9176,206
17.9176,200
17.9176,195
17.9176,197
17.9176,195
17.9176,192
17.9176,192
17.9331,202
17.9337,206
17.9361,203
17.9361,194
17.9392,197
17.9392,196
17.9392,194
17.9392,191
17.9479,199
17.9479,205
17.9479,205
17.9479,196
17.9479,196
17.9479,197
17.9479,195
17.9479,191
17.9642,196
17.9658,204
17.9679,206
17.9679,200
17.9679,195
17.9679,197
17.9679,196
17.9679,192
17.9801,192
17.9819,202
17.9819,206
17.9858,202
17.9858,194
17.9858,196
17.9858,195
17.9858,193
17.9963,190
17.9984,198
17.9984,205
18.0021,205
18.0021,196
18.0021,195
18.0021,197
18.0021,195
18.0122,191
18.0139,197
18.0139,204
18.0139,207
18.0139,200
18.0139,195
18.0139,197
18.0139,196
18.0283,192
18.0283,193
18.0283,202
18.0283,206
18.0283,203
18.0283,194
18.0395,197
18.0424,196
18.0444,194
18.0464,191
18.0484,199
18.0504,205
18.0504,205
18.0544,196
18.0559,196
18.0584,197
18.06,195
18.0624,191
18.0624,196
18.0624,204
18.0624,206
18.0624,200
18.0624,195
18.0624,197
18.0758,195
18.0758,192
18.0758,193
18.0758,202
18.0758,206
18.0758,203
18.0758,194
18.0758,197
18.0917,196
18.0944,194
18.0964,191
18.0964,199
18.0964,205
18.0964,205
18.0964,196
18.0964,196
18.1079,197
18.1104,195
18.1104,191
18.1104,196
18.1104,204
18.1104,206
18.1104,199
18.1104,195
18.1237,197
18.1237,195
18.1237,192
18.1237,193
18.1237,202
18.1237,206
18.1237,203
18.1237,194
18.1398,197
18.1424,196
18.1444,193
18.1444,191
18.1444,199
18.1444,205
18.1444,205
18.1444,196
18.1558,196
18.1584,197
18.1604,195
18.1604,191
18.1604,196
18.1604,204
18.1604,206
18.1604,199
18.1721,195
18.1744,197
18.1764,195
18.1784,192
18.1804,193
18.1804,202
18.1804,206
18.1804,202
18.1884,194
18.1904,197
18.1904,196
18.1904,193
18.1904,191
18.1904,199
18.1904,205
18.2021,205
18.2043,196
18.2043,196
18.2043,197
18.2043,195
18.2043,191
18.2043,196
18.2043,204
18.2043,206
18.2201,199
18.2224,195
18.2224,197
18.2224,195
18.2224,192
18.2224,193
18.2224,202
18.2224,206
18.2361,202
18.2375,194
18.2399,197
18.2421,196
18.2444,193
18.2464,191
18.2479,199
18.2504,205
18.2521,205
18.254,196
18.254,196
18.254,197
18.254,195
18.254,191
18.254,197
18.254,204
18.2681,206
18.2681,200
18.2681,195
18.2681,197
18.2681,196
18.2681,192
18.2681,193
18.2681,202
18.2841,206
18.2858,203
18.2884,194
18.2904,197
18.2924,196
18.2944,194
18.2964,191
18.2984,200
18.3004,205
18.3021,205
18.3044,196
18.3064,196
18.3084,197
18.3104,195
18.3104,191
18.3104,197
18.3162,204
18.3179,206
18.3179,199
18.3179,195
18.3179,197
18.3179,196
18.3179,192
18.3179,193
18.3323,202
18.3323,206
18.3323,203
18.3323,194
18.3402,197
18.3402,196
18.3402,193
18.3402,191
18.3482,199
18.3482,205
18.3482,205
18.3482,196
18.3482,196
18.3482,197
18.3482,195
18.3482,191
18.3642,197
18.3658,204
18.3679,206
18.3699,199
18.3724,195
18.3744,197
18.3764,196
18.3784,192
18.3804,193
18.3824,202
18.3841,206
18.3857,202
18.3884,194
18.3904,197
18.3924,196
18.3944,193
18.3964,191
18.3984,200
18.4004,205
18.4022,205
18.4044,196
18.4064,196
18.4064,197
18.4064,195
18.4123,191
18.4123,197
18.4123,204
18.4178,206
18.4199,199
18.4224,195
18.4224,197
18.4224,195
18.4284,192
18.4299,193
18.4324,202
18.4341,206
18.4341,202
18.4341,194
18.4404,197
18.4404,196
18.4444,193
18.4459,191
18.4459,200
18.4459,205
18.4459,205
18.4459,196
18.4459,196
18.4459,197
18.4602,195
18.4602,191
18.4602,197
18.4602,204
18.4602,206
18.4602,199
18.4602,195
18.4602,197
18.4763,195
18.4784,192
18.4804,193
18.4824,202
18.4824,206
18.4824,202
18.4824,194
18.4824,197
18.4923,196
18.494,193
18.4966,191
18.4984,200
18.5006,206
18.5006,205
18.5044,196
18.5064,196
18.5084,197
18.5104,195
18.5124,191
18.5144,197
18.5144,204
18.5144,206
18.5144,199
18.5144,195
18.5243,197
18.5243,195
18.5284,192
18.5304,193
18.5324,202
18.5341,206
18.5341,202
18.5341,194
18.5405,197
18.5405,196
18.5405,193
18.5405,191
18.5405,200
18.5405,205
18.5521,205
18.5544,195
18.5564,196
18.5579,197
18.5604,194
18.5624,191
18.5644,197
18.5664,204
18.5664,206
18.5664,199
18.5724,195
18.5724,197
18.5724,195
18.5724,192
18.5724,193
18.5724,202
18.5724,206
18.5724,202
18.5883,194
18.5883,197
18.5883,196
18.5883,193
18.5883,191
18.5883,200
18.5883,205
18.6021,204
18.6043,196
18.6064,196
18.6084,197
18.6104,195
18.6124,191
18.6144,197
18.6144,204
18.6144,206
18.6203,199
18.6224,195
18.6224,197
18.6224,195
18.6224,192
18.6224,194
18.6224,202
18.6224,206
18.636,202
18.6384,194
18.6409,197
18.6409,196
18.6409,193
18.6409,191
18.6409,200
18.6409,205
18.652,204
18.6544,195
18.6564,196
18.6584,197
18.6604,195
18.6624,191
18.6644,197
18.6664,204
18.6678,206
18.6699,199
18.6724,195
18.6744,197
18.6764,195
18.6784,191
18.6804,193
18.6824,202
18.6837,205
18.6858,201
18.6858,193
18.6858,196
18.6858,195
18.6858,192
18.6858,191
18.6858,200
18.6996,205
18.7016,205
18.7036,196
18.7036,197
18.7036,197
18.7036,195
18.7036,191
18.7036,198
18.7159,205
18.7159,206
18.7196,199
18.7196,195
18.7196,197
18.7196,195
18.7196,192
18.7196,194
18.7318,202
18.7318,206
18.7318,202
18.7318,194
18.7318,197
18.7414,196
18.7414,193
18.7414,191
18.7479,200
18.7504,206
18.7504,204
18.7544,195
18.7564,196
18.7584,197
18.7604,194
18.7624,191
18.7644,197
18.7664,204
18.7664,206
18.7664,198
18.7664,195
18.7664,197
18.7664,195
18.7664,192
18.7804,194
18.7819,203
18.7819,206
18.7819,202
18.7819,194
18.7819,197
18.7819,196
18.7819,193
18.7963,191
18.7984,200
18.8004,206
18.8004,204
18.8044,195
18.8064,196
18.8084,196
18.8104,194
18.8123,191
18.8139,197
18.8164,205
18.8178,206
18.8178,199
18.8178,195
18.8178,197
18.8178,195
18.8284,192
18.8284,194
18.8284,203
18.8284,206
18.8284,201
18.8284,194
18.8284,197
18.8417,196
18.8444,193
18.8464,191
18.8484,200
18.8504,205
18.8504,204
18.8544,195
18.8544,196
18.8544,197
18.8604,194
18.8624,191
18.8624,197
18.8624,205
18.8624,206
18.8624,198
18.8624,195
18.8624,197
18.8764,195
18.8779,192
18.8804,194
18.8804,203
18.8804,206
18.8804,202
18.8804,194
18.8804,197
18.8923,196
18.8937,193
18.8944,191
18.8944,200
18.8944,205
18.9022,204
18.9044,195
18.9044,196
18.9044,197
18.9103,194
18.9119,191
18.9144,198
18.9164,205
18.9186,206
18.9193,198
18.9193,195
18.9193,197
18.9193,195
18.9193,192
18.9193,194
18.9193,203
18.9346,206
18.9346,202
18.9346,194
18.9346,197
18.9423,196
18.9423,193
18.9423,191
18.9423,200
18.9506,206
18.9506,204
18.9506,195
18.9506,196
18.9506,197
18.9506,194
18.9506,191
18.9506,198
18.9506,205
18.9677,206
18.9699,198
18.9724,195
18.9744,197
18.9744,195
18.9744,192
18.9744,194
18.9825,203
18.9825,206
18.9825,202
18.9825,194
18.9825,197
18.9825,196
18.9825,193
18.9825,191
18.9986,201
19.0004,206
19.0021,204
19.0044,195
19.0064,196
19.0084,197
19.0104,194
19.0124,191
19.0146,198
19.0159,205
19.0178,206
19.0198,198
19.0224,195
19.0244,197
19.0264,195
19.0284,192
19.0304,194
19.0324,203
19.0346,206
19.0357,201
19.0384,194
19.0404,197
19.0429,196
19.0444,193
19.0464,191
19.0464,201
19.0464,206
19.0521,204
19.0539,195
19.0539,197
19.0539,197
19.0539,194
19.0622,191
19.0622,198
19.0622,205
19.0622,206
19.0622,198
19.0622,195
19.0622,197
19.0622,195
19.0783,192
19.0783,194
19.0783,203
19.0783,206
19.0783,201
19.0783,194
19.0783,197
19.0783,196
19.0943,193
19.0964,191
19.0984,201
19.1004,206
19.1004,204
19.1044,195
19.1064,196
19.1064,197
19.1103,194
