timestamp,ecg_value
0.0,124
0.0,186
0.0,363
0.0,534
0.0,554
0.0,442
0.0,310
0.0,209
0.0,143
0.0,159
0.0,303
0.0,488
0.0,563
0.0,481
0.0,352
0.0,241
0.0,166
0.0,146
0.0,249
0.0,430
0.0,551
0.0,512
0.0,392
0.0,276
0.0,195
0.0,150
0.0,207
0.0,369
0.0,521
0.0,533
0.0,427
0.0,307
0.0,218
0.0,160
0.0,174
0.0,305
0.0,473
0.0,540
0.0,464
0.0,349
0.0,253
0.0,188
0.0,170
0.0,263
0.0,426
0.0,534
0.0,495
0.0,384
0.0,280
0.0,207
0.0,167
0.0,219
0.0,366
0.0,505
0.0,515
0.0,417
0.0,309
0.0,229
0.0,177
0.0086,190
0.0086,309
0.0086,463
0.0086,522
0.0086,448
0.0086,339
0.0086,252
0.0096,194
0.0096,178
0.0096,266
0.0096,419
0.0096,521
0.0096,486
0.0096,386
0.0096,295
0.0096,233
0.0114,200
0.0114,252
0.0114,392
0.013,522
0.013,530
0.013,439
0.013,342
0.013,271
0.013,226
0.014,242
0.014,358
0.0143,502
0.0143,557
0.0143,487
0.0143,388
0.0143,307
0.0143,253
0.0143,237
0.0153,319
0.0153,463
0.0153,556
0.0153,519
0.0153,421
0.0153,333
0.0153,273
0.0153,239
0.0153,286
0.0153,416
0.0153,536
0.0171,541
0.0174,452
0.0174,360
0.0174,292
0.0174,248
0.0174,262
0.0184,371
0.0189,505
0.0195,554
0.02,484
0.02,388
0.02,310
0.02,259
0.02,243
0.02,321
0.02,457
0.02,545
0.0218,506
0.0218,412
0.0218,328
0.0218,272
0.0218,240
0.0218,285
0.0218,411
0.0235,526
0.0235,528
0.0235,441
0.0235,352
0.0235,287
0.0235,245
0.0235,258
0.0235,362
0.0235,491
0.0235,537
0.0252,468
0.0252,377
0.0252,307
0.0257,260
0.0257,247
0.0257,323
0.0257,455
0.0257,539
0.0257,501
0.0267,410
0.0273,331
0.0273,277
0.0273,247
0.0273,290
0.0284,411
0.0284,522
0.0284,524
0.0284,439
0.0301,355
0.0301,292
0.0301,252
0.0301,264
0.0301,366
0.0301,492
0.0301,536
0.0312,469
0.0312,381
0.0316,312
0.0316,268
0.0316,255
0.0316,328
0.0316,456
0.0316,536
0.0333,497
0.0333,408
0.0333,331
0.0333,280
0.0333,251
0.0333,294
0.0333,413
0.0333,521
0.0349,520
0.0349,437
0.0349,354
0.0349,294
0.0349,254
0.0349,266
0.0349,365
0.0361,488
0.0361,530
0.0361,464
0.0361,377
0.0361,311
0.0361,266
0.0361,253
0.0361,325
0.0373,450
0.0373,527
0.0373,489
0.039,401
0.039,326
0.039,278
0.039,250
0.0407,292
0.0407,407
0.0407,511
0.0427,510
0.0427,426
0.0427,343
0.0427,283
0.0437,242
0.0437,250
0.0437,345
0.0437,464
0.0437,504
0.0437,438
0.0437,352
0.0437,287
0.0451,244
0.0451,231
0.0451,302
0.0467,426
0.0482,504
0.0486,466
0.0486,380
0.0497,309
0.0497,264
0.0497,238
0.0497,281
0.0497,397
0.0514,501
0.0514,500
0.0514,418
0.0514,338
0.0514,284
0.0514,249
0.0514,264
0.0514,364
0.0514,485
0.0514,526
0.0514,461
0.0514,379
0.0531,314
0.0531,273
0.0531,260
0.0531,330
0.0531,452
0.0531,527
0.0531,488
0.0531,402
0.0531,330
0.0531,282
0.0531,254
0.0531,295
0.0548,409
0.0548,511
0.0548,509
0.0548,429
0.0548,351
0.0548,295
0.0548,259
0.0548,273
0.0548,371
0.0548,489
0.0548,528
0.0548,461
0.0565,375
0.0565,308
0.0565,259
0.0565,238
0.0565,298
0.0565,408
0.0565,467
0.0565,407
0.0565,295
0.0565,197
0.0581,119
0.0581,63
0.0581,83
0.0581,180
0.0581,275
0.0581,276
0.0599,209
0.0599,152
0.0599,127
0.0599,138
0.0599,214
0.0599,370
0.0599,529
0.0599,587
0.0599,524
0.0599,430
0.0599,352
0.0617,292
0.0617,266
0.0625,325
0.0625,440
0.0638,513
0.0638,474
0.0646,390
0.0646,321
0.0646,277
0.0656,252
0.0656,296
0.0656,411
0.0656,514
0.0656,511
0.0656,430
0.0656,351
0.0656,295
0.0656,258
0.0656,270
0.0674,366
0.0674,482
0.0674,519
0.0674,452
0.0674,368
0.0674,306
0.0674,265
0.0674,254
0.0674,325
0.069,446
0.069,519
0.069,478
0.069,391
0.069,319
0.069,271
0.069,243
0.069,285
0.069,399
0.069,500
0.069,496
0.069,414
0.069,335
0.0708,281
0.0708,245
0.0708,258
0.0708,354
0.0708,471
0.0708,507
0.0708,439
0.0708,355
0.0708,292
0.0708,249
0.0726,238
0.0726,308
0.0726,429
0.0726,503
0.0726,462
0.0726,377
0.0726,305
0.0726,258
0.0726,230
0.0726,271
0.0726,384
0.0726,484
0.0744,479
0.0744,396
0.0744,317
0.0744,263
0.0744,226
0.0744,239
0.0744,333
0.0744,451
0.0744,488
0.0744,421
0.0744,337
0.076,276
0.076,234
0.076,222
0.076,293
0.076,414
0.076,487
0.076,445
0.076,358
0.076,286
0.076,239
0.076,211
0.076,253
0.0777,366
0.0777,466
0.0777,460
0.0793,378
0.0793,298
0.0803,245
0.0806,208
0.0806,220
0.0806,314
0.0806,431
0.0806,466
0.0817,397
0.0817,312
0.0817,252
0.0817,212
0.0817,201
0.0817,271
0.0817,391
0.0817,463
0.0834,421
0.0834,334
0.0834,265
0.0834,219
0.0834,193
0.0834,235
0.0834,347
0.0834,448
0.0834,443
0.0834,363
0.085,286
0.085,235
0.085,201
0.085,217
0.085,314
0.085,434
0.085,471
0.085,405
0.085,323
0.085,265
0.085,228
0.0867,220
0.0867,294
0.0867,417
0.0867,492
0.0867,454
0.0867,371
0.0867,304
0.0867,261
0.0867,237
0.0867,282
0.0884,398
0.0884,501
0.0884,497
0.0884,417
0.0884,343
0.0884,291
0.0884,257
0.0884,272
0.0884,369
0.0884,485
0.0901,521
0.0901,453
0.0901,371
0.0901,311
0.0901,271
0.0901,261
0.0901,333
0.0901,453
0.0901,524
0.0901,482
0.0901,397
0.0901,328
0.0918,282
0.0918,255
0.0918,299
0.0918,412
0.0918,511
0.0918,504
0.0918,423
0.0918,347
0.0918,293
0.0918,258
0.0918,271
0.0918,367
0.0935,481
0.0935,516
0.0935,449
0.0935,367
0.0935,306
0.0935,265
0.0935,254
0.0935,324
0.0935,444
0.0935,514
0.0935,473
0.0935,389
0.0952,320
0.0952,275
0.0952,249
0.0952,292
0.0952,404
0.0952,502
0.0952,495
0.0952,414
0.0952,338
0.0969,287
0.0969,252
0.0969,267
0.0969,364
0.0969,478
0.0969,512
0.0969,445
0.0969,365
0.0969,304
0.0969,265
0.0969,255
0.0969,326
0.0986,445
0.0986,515
0.0986,474
0.0986,391
0.0986,323
0.0986,279
0.0986,252
0.0986,296
0.0986,408
0.0986,506
0.0986,499
0.0986,419
0.1002,345
0.1002,294
0.1002,259
0.1002,274
0.1002,371
0.1002,485
0.1002,518
0.1002,450
0.1002,370
0.1002,311
0.1002,272
0.1002,261
0.1002,332
0.102,451
0.102,520
0.102,476
0.102,392
0.102,325
0.102,280
0.102,254
0.102,298
0.102,410
0.102,507
0.102,499
0.1037,419
0.1037,344
0.1037,294
0.1037,260
0.1037,274
0.1037,369
0.1037,482
0.1037,513
0.1037,444
0.1037,363
0.1037,305
0.1037,266
0.1037,256
0.1055,327
0.1055,445
0.1055,513
0.1055,467
0.1055,380
0.1055,308
0.1055,261
0.1055,232
0.1055,273
0.1055,384
0.1055,481
0.1071,473
0.1071,393
0.1071,317
0.1071,268
0.1071,233
0.1071,248
0.1071,344
0.1071,458
0.1071,492
0.1071,426
0.1071,347
0.1071,289
0.1071,251
0.1088,241
0.1088,312
0.1088,431
0.1088,501
0.1088,458
0.1088,377
0.1088,312
0.1088,271
0.1088,247
0.1088,292
0.1088,406
0.1104,503
0.1104,496
0.1104,415
0.1104,340
0.1104,290
0.1104,255
0.1104,269
0.1104,365
0.1104,478
0.1104,510
0.1104,442
0.1121,362
0.1121,303
0.1121,263
0.1121,254
0.1121,325
0.1132,443
0.1132,511
0.1138,467
0.1141,383
0.115,316
0.115,273
0.115,246
0.115,290
0.115,402
0.115,498
0.115,487
0.115,403
0.115,321
0.115,263
0.1169,218
0.1169,220
0.1172,299
0.1172,393
0.1172,399
0.1172,299
0.1172,190
0.1172,106
0.1182,46
0.1182,21
0.1182,85
0.1182,207
0.1182,292
0.1182,271
0.1182,221
0.1182,208
0.1182,228
0.1182,257
0.12,337
0.12,464
0.1203,560
0.1203,542
0.1203,447
0.1203,359
0.1203,294
0.1203,250
0.1203,259
0.1213,354
0.1213,468
0.1213,501
0.1213,436
0.1213,359
0.1213,302
0.1213,265
0.1213,257
0.1213,328
0.1213,447
0.1213,515
0.1213,472
0.123,389
0.123,323
0.123,280
0.123,254
0.123,298
0.123,410
0.123,505
0.123,495
0.123,414
0.123,340
0.123,289
0.123,254
0.1248,270
0.1248,365
0.1252,477
0.1252,508
0.1252,439
0.1252,359
0.1252,300
0.1252,261
0.1252,252
0.1262,323
0.1266,441
0.1266,508
0.1276,463
0.1279,379
0.1279,312
0.1279,268
0.1285,242
0.1285,285
0.1294,396
0.1294,490
0.1294,480
0.1294,400
0.1294,325
0.1294,276
0.1294,241
0.1294,256
0.1311,351
0.1311,463
0.1311,492
0.1311,423
0.1311,341
0.1311,283
0.1311,243
0.1311,234
0.1311,305
0.1311,423
0.1311,490
0.1329,445
0.1329,361
0.1329,295
0.1329,251
0.1329,225
0.1329,269
0.1329,380
0.1329,475
0.1329,464
0.1329,382
0.1345,307
0.1345,257
0.1345,221
0.1345,237
0.1362,331
0.1369,444
0.1376,473
0.1376,403
0.1393,321
0.1393,264
0.1393,224
0.1393,215
0.1393,285
0.1393,403
0.1393,468
0.1411,423
0.1411,338
0.1411,271
0.1411,228
0.1411,202
0.1411,246
0.1411,357
0.1411,451
0.1411,439
0.1427,357
0.1427,282
0.1427,233
0.1427,198
0.1427,213
0.1427,307
0.1427,421
0.1427,449
0.1427,380
0.1427,298
0.1427,241
0.1444,202
0.1444,194
0.1444,267
0.1468,386
0.1468,454
0.1468,409
0.1479,326
0.1479,264
0.1479,222
0.1479,200
0.1479,248
0.1479,363
0.1479,461
0.1479,454
0.1479,376
0.1479,304
0.1479,258
0.1479,227
0.1479,247
0.1497,346
0.1497,462
0.1497,494
0.1497,428
0.1497,351
0.1497,296
0.1497,260
0.1497,254
0.1497,329
0.1497,448
0.1497,515
0.1497,471
0.1515,389
0.1515,324
0.1515,282
0.1515,259
0.1515,305
0.1515,418
0.1515,512
0.1515,501
0.1515,420
0.1515,346
0.1515,295
0.1515,261
0.1515,278
0.1515,375
0.1533,487
0.1533,516
0.1533,447
0.1533,367
0.1533,309
0.1533,270
0.1533,261
0.1533,334
0.1533,452
0.1533,517
0.1533,471
0.1533,387
0.1533,320
0.1533,277
0.155,252
0.155,298
0.155,410
0.155,505
0.155,493
0.155,412
0.155,339
0.155,288
0.155,254
0.155,272
0.155,369
0.155,481
0.155,510
0.1567,440
0.1567,360
0.1567,301
0.1567,262
0.1567,255
0.1567,329
0.1567,448
0.1567,515
0.1567,470
0.1567,387
0.1567,321
0.1567,278
0.1567,254
0.1567,299
0.1585,413
0.1585,507
0.1585,495
0.1585,414
0.1585,340
0.1585,290
0.1585,256
0.1585,274
0.1585,373
0.1585,485
0.1585,514
0.1585,445
0.1585,365
0.1602,307
0.1602,268
0.1602,261
0.1602,335
0.1602,454
0.1602,518
0.1602,472
0.1602,387
0.1602,320
0.1602,276
0.1602,252
0.1602,299
0.1618,413
0.1618,508
0.1618,496
0.1618,415
0.1618,341
0.1618,290
0.1618,255
0.1618,274
0.1618,373
0.1618,485
0.1618,513
0.1618,443
0.1635,363
0.1635,303
0.1635,264
0.1635,258
0.1635,334
0.1635,453
0.1635,518
0.1635,471
0.1635,386
0.1635,317
0.1635,272
0.1635,247
0.1635,294
0.1635,408
0.1653,502
0.1653,489
0.1653,407
0.1653,332
0.1653,281
0.1653,247
0.1653,266
0.1653,366
0.1653,479
0.1653,505
0.1653,431
0.1653,347
0.1653,284
0.1653,241
0.1671,233
0.1671,307
0.1671,427
0.1671,493
0.1671,446
0.1671,362
0.1671,294
0.1671,250
0.1671,226
0.1671,276
0.1671,393
0.1671,490
0.1671,479
0.1671,397
0.1689,321
0.1689,271
0.1689,237
0.1689,257
0.1689,359
0.1689,473
0.1689,502
0.1689,433
0.1689,353
0.1689,295
0.1689,257
0.1689,253
0.1689,332
0.1689,454
0.1706,521
0.1706,474
0.1706,389
0.1706,320
0.1706,275
0.1706,251
0.1706,300
0.1706,415
0.1706,510
0.1706,497
0.1706,414
0.1706,338
0.1706,286
0.1706,252
0.1724,273
0.1724,375
0.1724,489
0.1724,516
0.1724,445
0.1724,362
0.1724,301
0.1724,261
0.1724,257
0.1724,336
0.1724,459
0.1724,523
0.1724,473
0.1724,381
0.1741,302
0.1741,246
0.1741,210
0.1741,247
0.1741,346
0.1741,422
0.1741,380
0.1741,263
0.1741,156
0.1741,77
0.1741,22
0.1741,28
0.1741,127
0.1741,252
0.1758,298
0.1758,251
0.1758,208
0.1758,209
0.1758,232
0.1758,275
0.1758,384
0.1758,515
0.1758,576
0.1758,514
0.1758,411
0.1758,325
0.1758,266
0.1775,235
0.1775,283
0.1775,402
0.1775,501
0.1775,490
0.1775,409
0.1775,332
0.1775,279
0.1775,245
0.1775,267
0.1775,371
0.1775,487
0.1793,514
0.1793,442
0.1793,359
0.1793,296
0.1793,255
0.1793,250
0.1793,330
0.1793,454
0.1793,520
0.1793,470
0.1793,382
0.1793,310
0.1793,263
0.1793,239
0.1811,291
0.1811,411
0.1811,509
0.1811,496
0.1811,411
0.1811,331
0.1811,277
0.1811,241
0.1811,263
0.1811,367
0.1811,484
0.1811,510
0.1811,437
0.1828,351
0.1828,288
0.1828,246
0.1828,241
0.1828,322
0.1828,447
0.1828,513
0.1828,464
0.1828,376
0.1828,304
0.1828,257
0.1828,233
0.1828,285
0.1828,406
0.1845,504
0.1845,488
0.1845,402
0.1845,321
0.1845,267
0.1845,231
0.1845,253
0.1845,359
0.1845,476
0.1845,502
0.1845,427
0.1845,341
0.1845,277
0.1845,233
0.1863,228
0.1863,309
0.1863,435
0.1863,500
0.1863,449
0.1863,359
0.1863,285
0.1863,237
0.1863,212
0.1863,265
0.1863,386
0.1863,484
0.1863,467
0.1863,380
0.188,297
0.188,242
0.188,205
0.188,227
0.188,331
0.188,450
0.188,476
0.188,400
0.188,312
0.188,248
0.188,205
0.188,200
0.188,282
0.1896,408
0.1896,474
0.1896,422
0.1896,330
0.1896,257
0.1896,208
0.1896,184
0.1896,237
0.1896,359
0.1896,458
0.1896,441
0.1896,354
0.1896,272
0.1896,217
0.1914,181
0.1914,206
0.1914,313
0.1914,436
0.1914,463
0.1914,389
0.1914,302
0.1914,241
0.1914,200
0.1914,199
0.1914,286
0.1914,417
0.1914,486
0.1914,436
0.1931,349
0.1948,278
0.1965,232
0.2001,211
0.2019,269
0.2037,397
0.2055,499
0.2073,486
0.209,402
0.2109,323
0.2133,270
0.2162,237
0.218,264
0.2198,376
0.2216,498
0.2234,526
0.2253,451
0.2272,364
0.2291,299
0.2324,257
0.2341,253
0.2361,339
0.2377,467
0.2402,533
0.242,480
0.2438,390
0.2462,315
0.2472,266
0.2491,243
0.2508,299
0.254,424
0.2563,524
0.2574,506
0.2592,419
0.263,338
0.2641,281
0.2659,246
0.2676,271
0.2691,381
0.2727,501
0.2767,526
0.2767,451
0.2787,363
0.2794,297
0.282,253
0.2836,250
0.2853,336
0.2871,465
0.2904,531
0.2922,478
0.2939,388
0.2955,314
0.2974,265
0.2996,241
0.3023,297
0.3041,422
0.3058,520
0.3069,504
0.3103,416
0.312,334
0.3136,277
0.3154,241
0.3171,267
0.3188,378
0.3221,498
0.3242,524
0.3252,448
0.327,361
0.3303,295
0.332,253
0.3338,251
0.3355,338
0.3376,467
0.3406,534
0.3426,481
0.3441,389
0.3467,314
0.3485,264
0.35,242
0.3511,299
0.3542,425
0.356,524
0.3577,507
0.3596,419
0.3613,337
0.363,281
0.3665,246
0.3682,273
0.3699,385
0.372,504
0.3735,529
0.3753,453
0.3786,365
0.3802,298
0.382,255
0.3843,253
0.3853,341
0.3885,471
0.3904,536
0.3926,483
0.3938,391
0.3957,316
0.3976,267
0.3999,243
0.4011,301
0.4048,427
0.4066,526
0.4085,509
0.4104,420
0.4121,337
0.4137,279
0.4155,243
0.4188,269
0.4211,382
0.4223,502
0.4246,527
0.4257,452
0.4276,364
0.4296,298
0.4318,255
0.4328,253
0.4366,341
0.4378,471
0.4397,536
0.4416,482
0.4435,391
0.4454,316
0.4478,265
0.4506,241
0.4529,299
0.4544,425
0.4556,524
0.4578,505
0.459,415
0.4627,331
0.465,273
0.4665,237
0.4678,264
0.4696,377
0.4715,498
0.4736,521
0.4755,444
0.4779,354
0.4807,286
0.4822,239
0.4846,235
0.4858,319
0.4877,447
0.4896,509
0.4919,455
0.4946,363
0.4961,287
0.4983,237
0.4995,213
0.5013,272
0.5049,399
0.5068,499
0.5087,481
0.5095,394
0.5123,313
0.5144,259
0.5156,226
0.5176,255
0.5206,369
0.5226,490
0.5237,514
0.5256,437
0.5284,348
0.5301,283
0.5325,241
0.5336,241
0.5359,331
0.5388,463
0.5407,529
0.5424,477
0.5446,387
0.5457,312
0.5475,263
0.5492,239
0.551,299
0.555,425
0.5565,523
0.5578,504
0.5597,415
0.5616,332
0.5635,275
0.5654,239
0.5678,267
0.5707,379
0.5725,498
0.5747,521
0.5759,444
0.5778,356
0.5799,289
0.5833,246
0.5845,244
0.5868,334
0.5884,464
0.5899,528
0.591,474
0.5946,383
0.5962,308
0.5977,257
0.5994,229
0.6011,282
0.6028,400
0.6063,487
0.6073,453
0.6098,348
0.6125,245
0.6147,162
0.6166,95
0.6186,92
0.6208,177
0.622,277
0.6238,287
0.6257,207
0.628,129
0.6292,80
0.6329,59
0.6348,98
0.6371,248
0.6381,445
0.6404,560
0.6415,534
0.6434,450
0.6465,371
0.6484,305
0.6505,265
0.6517,309
0.6537,424
0.6547,513
0.6582,490
0.6592,400
0.6615,320
0.6642,267
0.666,234
0.6678,266
0.6697,380
0.6716,500
0.6734,522
0.677,444
0.6786,357
0.6786,292
0.6823,250
0.6841,250
0.6866,340
0.6877,469
0.6895,532
0.6914,477
0.6933,386
0.695,311
0.6984,261
0.7004,238
0.7028,298
0.7038,424
0.7057,521
0.7076,500
0.7093,410
0.7123,327
0.7142,271
0.7164,235
0.7181,264
0.7193,376
0.7211,494
0.723,515
0.7266,437
0.7284,349
0.7303,284
0.7321,241
0.7345,241
0.7357,330
0.7377,460
0.7397,522
0.7417,466
0.7437,375
0.7462,299
0.7482,250
0.7499,227
0.751,286
0.7545,411
0.7564,506
0.7583,484
0.7602,395
0.7624,313
0.7639,257
0.7648,222
0.768,251
0.7703,364
0.7719,482
0.7749,501
0.7768,422
0.7786,332
0.7803,267
0.7826,223
0.7838,223
0.7857,312
0.788,441
0.7892,502
0.7926,446
0.7945,355
0.7963,281
0.7982,231
0.8001,209
0.8021,269
0.8046,395
0.8058,489
0.8081,467
0.8093,377
0.8123,294
0.8142,238
0.8161,202
0.818,231
0.8198,342
0.8217,459
0.8236,478
0.8255,398
0.8283,308
0.8288,244
0.8324,200
0.8342,200
0.8359,288
0.838,416
0.8392,476
0.8409,419
0.8441,326
0.8464,254
0.8475,205
0.8493,182
0.851,242
0.8544,368
0.8562,463
0.8583,440
0.8593,349
0.8615,268
0.8644,211
0.8661,176
0.8684,206
0.8696,316
0.8714,435
0.8737,455
0.8749,376
0.8786,288
0.8804,226
0.8822,184
0.884,186
0.8859,277
0.8877,408
0.89,472
0.8911,417
0.893,327
0.8961,258
0.8981,213
0.8999,195
0.9018,260
0.9036,390
0.9054,489
0.9073,469
0.9109,383
0.9109,305
0.9145,253
0.9158,221
0.9177,255
0.9197,371
0.922,490
0.9251,511
0.9251,434
0.9287,349
0.9302,287
0.9314,246
0.9333,247
0.9369,338
0.9386,467
0.9405,527
0.9427,470
0.9438,381
0.9454,309
0.9472,261
0.9506,242
0.9521,305
0.9539,433
0.9556,528
0.9573,505
0.9592,415
0.9626,334
0.9645,278
0.9664,244
0.9687,275
0.9699,388
0.9717,505
0.9735,522
0.9754,443
0.9773,356
0.979,291
0.9826,249
0.9849,250
0.9861,341
0.9881,468
0.9904,528
0.9916,471
0.9935,380
0.9958,306
0.9988,257
1.001,236
1.0021,297
1.0043,423
1.0056,518
1.0074,495
1.0092,408
1.0111,329
1.0146,276
1.0167,242
1.0177,274
1.0196,388
1.0214,505
1.0233,522
1.0269,443
1.0287,357
1.0306,292
1.0324,250
1.0341,251
1.0364,343
1.0376,471
1.0395,530
1.0415,473
1.0437,383
1.0466,311
1.0485,264
1.0504,243
1.0517,306
1.0536,432
1.0555,525
1.0575,500
1.0595,412
1.0619,332
1.0644,278
1.0662,244
1.0682,275
1.0693,388
1.0711,503
1.0744,520
1.0763,441
1.0788,356
1.0805,294
1.0815,253
1.0833,255
1.0868,346
1.0886,473
1.0905,532
1.0925,473
1.0949,383
1.0963,311
1.0975,264
1.0994,244
1.103,307
1.1048,433
1.107,526
1.1082,500
1.1103,411
1.1119,330
1.1148,275
1.1167,242
1.1186,275
1.1204,389
1.1226,505
1.1238,522
1.1257,443
1.1281,357
1.1293,293
1.1329,250
1.1347,252
1.137,343
1.1382,470
1.1401,529
1.1423,472
1.1436,382
1.1453,311
1.149,264
1.1508,244
1.153,307
1.1542,434
1.1561,525
1.1583,500
1.16,410
1.161,330
1.1643,276
1.1666,242
1.1676,273
1.1695,385
1.1713,499
1.1748,513
1.1767,433
1.1785,347
1.1803,284
1.1826,243
1.1837,246
1.1856,336
1.1875,462
1.1895,517
1.1918,455
1.1952,362
1.1962,288
1.1982,239
1.2001,218
1.2024,280
1.2036,407
1.2055,498
1.2078,472
1.2108,382
1.2125,301
1.2143,248
1.2155,215
1.2191,248
1.2191,365
1.2226,484
1.2244,503
1.2262,426
1.228,341
1.2305,279
1.2316,238
1.2335,241
1.2354,332
1.2373,460
1.2405,518
1.2424,460
1.2448,372
1.2465,302
1.2477,257
1.2496,238
1.2515,304
1.2535,430
1.2558,521
1.2571,495
1.2607,406
1.2623,326
1.2641,272
1.266,238
1.268,271
1.2703,385
1.2719,500
1.2737,516
1.2755,437
1.2773,353
1.2795,291
1.2823,249
1.2842,252
1.2867,343
1.2879,469
1.2898,525
1.2917,465
1.2949,377
1.2969,305
1.2981,259
1.3003,240
1.302,304
1.305,430
1.3064,520
1.3083,489
1.3102,394
1.3119,306
1.3134,242
1.3152,197
1.3184,216
1.3203,311
1.3221,407
1.3245,394
1.326,283
1.3304,169
1.3311,84
1.3322,25
1.3343,17
1.3354,107
1.3373,243
1.3392,317
1.3425,282
1.3448,232
1.3466,222
1.3481,238
1.3497,268
1.3523,362
1.3546,496
1.3562,582
1.3578,543
1.3605,437
1.3621,343
1.3644,276
1.3656,235
1.3675,264
1.3693,377
1.3711,493
1.3746,509
1.3766,431
1.3788,348
1.3803,287
1.3819,247
1.3844,252
1.3863,345
1.3882,472
1.3905,528
1.3921,468
1.3937,378
1.3965,306
1.3984,258
1.4001,238
1.4026,301
1.4046,426
1.4068,516
1.4084,489
1.41,401
1.4111,322
1.4146,269
1.4165,237
1.4188,272
1.4209,387
1.4224,501
1.4238,514
1.4258,434
1.4278,347
1.4295,284
1.4317,241
1.4343,244
1.4361,335
1.4386,462
1.4397,516
1.442,456
1.4451,367
1.4461,296
1.4479,250
1.4498,231
1.4516,296
1.454,422
1.4573,512
1.4587,483
1.4599,394
1.4623,313
1.4633,258
1.4652,224
1.4687,257
1.4705,371
1.4728,483
1.4738,495
1.4756,415
1.4774,328
1.4791,267
1.4827,226
1.4845,231
1.4866,324
1.4886,452
1.4897,506
1.4917,444
1.4935,354
1.4954,282
1.4987,234
1.5005,215
1.5023,281
1.5044,407
1.5057,496
1.5077,467
1.5096,377
1.5115,297
1.5133,243
1.5151,208
1.5188,242
1.521,356
1.5224,469
1.5234,481
1.5254,399
1.5288,313
1.5288,251
1.5325,210
1.5343,214
1.5361,305
1.5376,431
1.5395,483
1.5414,420
1.5449,329
1.5449,260
1.5486,212
1.5504,194
1.5528,260
1.5544,386
1.5556,474
1.558,443
1.5609,353
1.5609,273
1.5645,220
1.5664,186
1.5684,220
1.5706,334
1.5719,449
1.5737,460
1.5756,378
1.5776,291
1.5797,229
1.5825,188
1.5844,194
1.5856,287
1.5879,413
1.5908,465
1.593,403
1.5942,311
1.5964,243
1.5976,198
1.5998,183
1.6026,252
1.6048,380
1.6061,473
1.608,445
1.6104,359
1.6116,283
1.6136,234
1.6166,205
1.6177,244
1.6195,362
1.6213,477
1.6231,490
1.6265,412
1.6289,329
1.63,272
1.6324,235
1.6336,244
1.636,341
1.6394,470
1.6405,525
1.6424,464
1.6446,376
1.6462,306
1.6476,261
1.6505,245
1.6528,314
1.6544,441
1.6556,529
1.6575,498
1.6592,409
1.6624,330
1.6641,277
1.666,246
1.6679,283
1.6697,400
1.6716,512
1.6735,521
1.6755,439
1.6779,353
1.679,291
1.6829,249
1.6847,256
1.6865,351
1.6888,476
1.6904,529
1.6916,467
1.6939,378
1.6949,309
1.6986,264
1.7008,247
1.7024,314
1.7037,440
1.7059,526
1.709,494
1.71,404
1.7122,326
1.7151,274
1.7171,241
1.7192,278
1.7204,395
1.7223,507
1.7247,517
1.7259,436
1.7278,352
1.7297,290
1.7316,250
1.7335,256
1.7375,352
1.7375,477
1.7404,528
1.7424,464
1.7436,375
1.7453,303
1.7472,256
1.7506,239
1.7529,307
1.7545,435
1.7564,522
1.7575,491
1.7597,402
1.7625,323
1.7643,271
1.7662,239
1.7685,276
1.7696,392
1.7718,505
1.7736,513
1.7771,431
1.7787,346
1.7804,285
1.7816,247
1.7835,255
1.7853,353
1.7887,478
1.7903,529
1.7922,465
1.7941,375
1.7966,304
1.7978,259
1.8001,244
1.8018,312
1.8045,439
1.8063,525
1.8082,493
1.8102,403
1.8124,325
1.8138,273
1.8165,242
1.8185,280
1.8207,397
1.8223,508
1.824,516
1.8264,434
1.8288,349
1.8301,287
1.8325,247
1.8337,254
1.8359,349
1.8384,475
1.8398,525
1.8423,463
1.845,377
1.8465,308
1.8484,263
1.85,248
1.8531,316
1.8541,442
1.8563,528
1.858,495
1.8608,406
1.8622,327
1.8646,275
1.8663,242
1.868,279
1.8705,394
1.8726,506
1.8741,514
1.8767,433
1.8786,349
1.8797,287
1.8821,246
1.8833,253
1.8868,349
1.8887,474
1.8903,522
1.8921,458
1.8952,368
1.8962,297
1.8986,250
1.9001,232
1.9018,298
1.9046,422
1.9062,504
1.9077,469
1.9108,379
1.9125,300
1.9139,248
1.9165,216
1.9182,254
1.9206,370
1.9225,480
1.9237,486
1.9257,405
1.9277,321
1.9297,265
1.9316,228
1.9328,239
1.9365,337
1.9384,464
1.9402,512
1.9421,448
1.9444,361
1.9455,292
1.9478,247
1.9503,233
1.9525,304
1.9537,433
1.9556,519
1.9575,487
1.96,399
1.9611,323
1.9648,273
1.9661,243
1.9685,283
1.9697,399
1.972,508
1.975,513
1.975,431
1.9786,347
1.9804,287
1.9823,249
1.9837,258
1.9856,355
1.9875,479
1.9894,526
1.9912,461
1.9949,371
1.9949,301
1.9983,255
2.0006,240
2.0018,310
2.0037,438
2.0056,522
2.008,489
2.0108,400
2.0125,322
2.0145,270
2.0163,237
2.0181,272
2.0199,380
2.0219,480
2.0238,474
2.0258,377
2.0277,275
2.0306,195
2.0318,130
2.0337,110
2.0356,177
2.0378,276
2.0409,305
2.0427,230
2.045,139
2.0465,80
2.0477,51
2.0496,59
2.0515,165
2.0534,349
2.0552,501
2.059,520
2.061,462
2.0625,396
2.0637,339
2.0656,295
2.0679,318
2.0709,419
2.0728,516
2.0747,512
2.0766,424
2.0784,338
2.0802,279
2.0823,241
2.0835,253
2.0854,353
2.0873,479
2.0909,527
2.0928,463
2.0942,376
2.0964,308
2.0982,263
2.0994,247
2.103,317
2.1047,444
2.1065,527
2.109,491
2.11,400
2.1122,322
2.1134,270
2.1153,239
2.1191,280
2.1206,397
2.1218,507
2.1241,512
2.127,429
2.1288,345
2.1288,284
2.1325,244
2.1344,254
2.1367,352
2.1379,478
2.1405,524
2.1417,459
2.1436,370
2.1457,300
2.1486,254
2.1505,239
2.1523,309
2.1543,435
2.1568,517
2.1584,481
2.1596,391
2.1619,313
2.1648,261
2.1666,230
2.1686,269
2.1704,385
2.1728,493
2.1743,497
2.1755,413
2.1773,327
2.1789,268
2.183,227
2.1841,236
2.1864,333
2.1879,458
2.1914,503
2.1926,437
2.1945,348
2.1966,281
2.1978,237
2.1997,223
2.2016,293
2.2035,420
2.2054,501
2.2073,462
2.2091,372
2.2126,293
2.2147,241
2.2159,211
2.2183,252
2.2195,368
2.2212,476
2.2248,477
2.227,393
2.2282,308
2.2301,251
2.2324,212
2.2336,223
2.2358,319
2.2386,443
2.2406,485
2.2425,417
2.2445,327
2.2466,260
2.2478,215
2.2497,201
2.2516,272
2.2535,399
2.2554,480
2.259,442
2.259,351
2.2608,274
2.2642,222
2.2665,190
2.2676,230
2.2694,346
2.2711,455
2.273,458
2.2764,375
2.2787,290
2.2803,231
2.2814,192
2.2846,204
2.2864,302
2.2876,426
2.2895,469
2.2914,402
2.2932,311
2.295,243
2.2984,198
2.3003,184
2.3021,258
2.3046,388
2.3058,471
2.3086,436
2.3098,348
2.3117,274
2.315,225
2.3158,197
2.318,241
2.32,362
2.3214,474
2.3233,478
2.3269,398
2.3286,317
2.3305,261
2.3315,226
2.333,241
2.3349,343
2.3381,470
2.3398,517
2.3416,451
2.3435,365
2.3464,298
2.3479,255
2.3497,245
2.3516,320
2.3535,449
2.3568,531
2.3583,494
2.3595,405
2.3613,327
2.3646,275
2.3665,245
2.3688,289
2.3704,408
2.3716,516
2.3734,518
2.3751,435
2.3785,351
2.3809,290
2.3825,250
2.3837,262
2.3856,362
2.3878,485
2.3907,528
2.3929,463
2.3945,375
2.3956,307
2.3978,263
2.4006,250
2.4025,323
2.4044,450
2.4056,530
2.4075,490
2.4094,401
2.4111,325
2.4144,274
2.4163,244
2.4183,287
2.4202,405
2.4216,513
2.4234,513
2.4251,428
2.4283,345
2.4301,285
2.4324,246
2.4336,258
2.4355,359
2.439,482
2.439,524
2.4426,457
2.4445,369
2.4454,301
2.4482,257
2.4504,244
2.4516,317
2.4535,443
2.4553,521
2.4585,481
2.4608,391
2.4618,316
2.4641,265
2.4665,236
2.4677,280
2.4696,400
2.4715,508
2.4734,508
2.4752,424
2.4787,342
2.4802,284
2.4821,246
2.4841,260
2.4863,362
2.4879,485
2.4907,526
2.4926,458
2.495,370
2.4966,303
2.4977,259
2.5002,248
2.5015,322
2.505,449
2.505,529
2.5087,488
2.5109,399
2.5119,322
2.5146,271
2.5159,242
2.5178,285
2.5196,405
2.5215,511
2.5234,511
2.5252,427
2.5288,344
2.5302,286
2.5321,248
2.5336,262
2.5364,364
2.5387,487
2.5399,528
2.5417,459
2.5436,372
2.5469,303
2.5481,258
2.5498,245
2.5517,319
2.5536,446
2.5554,524
2.5589,484
2.5589,395
2.5624,320
2.5643,269
2.5666,241
2.5677,286
2.5696,405
2.5715,512
2.5735,510
2.5752,426
2.5786,342
2.5802,283
2.5824,245
2.5835,258
2.5854,358
2.5889,479
2.5908,517
2.5926,448
2.5948,359
2.5965,289
2.5977,243
2.5995,229
2.6015,302
2.6032,427
2.6073,503
2.6084,461
2.6106,372
2.6124,295
2.6138,245
2.6164,215
2.6187,260
2.6199,380
2.6224,487
2.6236,485
2.6258,403
2.6284,322
2.6303,266
2.632,230
2.6338,245
2.6357,346
2.6381,470
2.6407,511
2.6426,442
2.6444,355
2.6459,289
2.647,246
2.6507,236
2.653,313
2.6544,442
2.6556,521
2.6575,482
2.6597,394
2.6609,319
2.6644,270
2.6662,242
2.6688,287
2.6705,407
2.6717,511
2.6736,508
2.6758,423
2.6786,340
2.6796,281
2.6815,243
2.6833,259
2.6868,360
2.6886,482
2.6904,522
2.6927,452
2.6939,365
2.6956,297
2.6979,253
2.701,241
2.701,317
2.7046,444
2.707,522
2.7082,482
2.7104,393
2.7116,317
2.7135,264
2.7155,229
2.7175,266
2.7199,374
2.7227,466
2.725,445
2.726,338
2.7277,231
2.7296,145
2.7315,76
2.7334,65
2.7371,145
2.7371,252
2.7408,285
2.7427,220
2.7445,147
2.7462,101
2.7484,88
2.7496,129
2.7515,271
2.7539,459
2.7569,574
2.7569,550
2.7607,462
2.7624,377
2.7646,309
2.7658,264
2.7677,296
2.7696,405
2.7715,504
2.7738,498
2.7748,414
2.7786,333
2.7796,278
2.7814,242
2.7848,261
2.7872,364
2.7884,488
2.7905,527
2.7915,458
2.7932,370
2.7949,302
2.7985,258
2.8004,247
2.8023,324
2.8044,452
2.806,527
2.809,485
2.8109,395
2.8126,319
2.8145,269
2.8164,241
2.8183,287
2.8203,407
2.8223,512
2.8245,506
2.8257,420
2.8275,337
2.8306,279
2.8329,241
2.8341,257
2.8364,360
2.8382,482
2.8393,519
2.843,449
2.843,360
2.8449,293
2.8486,249
2.851,239
2.8521,315
2.8547,442
2.8562,516
2.8572,472
2.8589,382
2.8624,306
2.8644,255
2.8655,227
2.8673,274
2.8704,393
2.8725,498
2.8736,491
2.8754,406
2.8772,323
2.8791,266
2.881,227
2.8843,244
2.8859,346
2.8875,468
2.8893,504
2.8911,433
2.8928,343
2.8961,275
2.8975,230
2.8992,220
2.9011,297
2.9045,424
2.9062,499
2.908,454
2.9099,364
2.9127,288
2.9132,238
2.9149,209
2.919,255
2.9202,375
2.9221,477
2.9241,470
2.9265,383
2.928,298
2.929,241
2.9309,203
2.9328,220
2.9364,322
2.9383,445
2.9403,480
2.9421,408
2.9444,317
2.9456,251
2.9474,206
2.9492,196
2.951,273
2.9546,400
2.9565,475
2.9583,429
2.9599,336
2.9623,261
2.9645,210
2.9657,182
2.9678,229
2.9689,349
2.9722,453
2.9739,447
2.9762,361
2.9773,278
2.979,221
2.9828,183
2.9846,201
2.9869,304
2.9881,429
2.9906,466
2.9921,394
2.9933,305
2.9964,240
2.9982,197
3.0002,189
3.0024,269
3.0036,399
3.0055,477
3.008,435
3.0092,347
3.0125,275
3.0144,229
3.0162,205
3.0186,256
3.0198,379
3.0218,486
3.0247,482
3.027,399
3.0286,319
3.03,265
3.033,230
3.0348,251
3.037,357
3.0382,481
3.0405,519
3.0416,450
3.0433,363
3.0451,298
3.0486,255
3.0508,247
3.0523,327
3.0534,455
3.0552,529
3.0584,484
3.0601,395
3.0625,319
3.0637,271
3.0654,244
3.0672,293
3.0709,414
3.0727,518
3.0746,510
3.0768,424
3.078,343
3.0796,285
3.0816,247
3.0834,265
3.0873,370
3.0884,491
3.0905,525
3.0917,453
3.0936,366
3.0967,299
3.0985,255
3.1005,247
3.1028,326
3.1043,454
3.1062,527
3.1075,481
3.111,391
3.1121,316
3.1144,266
3.1156,240
3.118,290
3.121,412
3.1225,514
3.1237,505
3.1255,420
3.1278,337
3.1305,280
3.1324,243
3.1344,262
3.1366,368
3.1378,489
3.1397,523
3.1416,451
3.1434,364
3.1465,297
3.1489,254
3.1504,246
3.152,326
3.1552,454
3.1567,527
3.1584,481
3.1596,391
3.1615,317
3.1634,268
3.167,242
3.167,291
3.1704,413
3.1715,515
3.1746,506
3.1764,420
3.1787,337
3.1803,280
3.1815,243
3.1837,262
3.1867,367
3.1889,489
3.1901,523
3.1924,451
3.1936,364
3.1967,297
3.1982,254
3.2002,247
3.2025,326
3.2037,454
3.2056,526
3.2081,480
3.2093,390
3.2112,315
3.2146,266
3.2168,240
3.2179,291
3.2198,414
3.2216,517
3.2235,508
3.2253,422
3.2288,340
3.2288,283
3.2324,246
3.2339,266
3.2358,372
3.2382,493
3.2394,525
3.2414,453
3.2451,366
3.2451,299
3.2488,255
3.2507,248
3.2526,328
3.2545,456
3.2568,528
3.2584,482
3.2596,391
3.2618,315
3.2647,265
3.2663,238
3.2686,288
3.2697,410
3.2715,513
3.2733,502
3.2767,415
3.2785,332
3.2801,274
3.2826,236
3.2837,255
3.2856,358
3.2875,476
3.2893,505
3.2912,429
3.2948,339
3.2965,273
3.2983,230
3.3002,223
3.3022,304
3.3034,432
3.3071,503
3.3086,455
3.3105,366
3.3122,291
3.3133,243
3.3152,219
3.3171,272
3.3207,397
3.3225,501
3.3244,491
3.3257,405
3.329,322
3.329,266
3.3309,230
3.3346,251
3.3365,359
3.3383,481
3.3405,514
3.3417,443
3.3445,357
3.3469,292
3.3478,250
3.3488,244
3.3523,326
3.3542,454
3.3565,525
3.3581,477
3.3598,387
3.361,311
3.3642,263
3.3661,237
3.3684,290
3.3696,414
3.3715,516
3.3733,504
3.3765,418
3.3783,335
3.3805,277
3.3816,240
3.3835,260
3.3853,367
3.3872,487
3.3891,518
3.3909,444
3.3946,358
3.3965,292
3.3976,250
3.3995,245
3.4013,325
3.403,449
3.4067,511
3.4085,453
3.4103,352
3.4121,264
3.4143,199
3.4162,152
3.4177,177
3.4207,266
3.4225,337
3.4243,297
3.4261,191
3.4281,96
3.4303,33
3.4324,1
3.4336,38
3.4356,166
3.4374,324
3.4398,417
3.4428,411
3.4454,377
3.4464,342
3.4484,308
3.4496,299
3.4515,371
3.4533,481
3.4569,535
3.4587,475
3.4606,377
3.4624,299
3.464,250
3.4663,227
3.4675,283
3.4695,409
3.4718,513
3.4751,503
3.4765,418
3.4777,336
3.4804,279
3.482,242
3.4846,264
3.4866,372
3.4881,492
3.4905,521
3.4923,447
3.4948,360
3.4966,294
3.4984,251
3.5002,247
3.5017,329
3.5046,458
3.5063,526
3.5078,476
3.5088,385
3.5123,309
3.5142,260
3.5161,235
3.5185,288
3.5195,412
3.5213,511
3.5232,498
3.5249,411
3.5284,328
3.5302,271
3.5314,234
3.5332,256
3.5351,363
3.537,483
3.5389,511
3.5408,436
3.5444,348
3.5464,282
3.5475,238
3.5493,233
3.5512,316
3.5548,445
3.557,514
3.5585,464
3.5597,374
3.5616,300
3.5639,250
3.567,225
3.567,278
3.5706,401
3.5724,500
3.5743,485
3.5766,397
3.5778,314
3.5795,257
3.582,220
3.583,243
3.5866,350
3.5886,469
3.5904,496
3.5924,420
3.5948,330
3.5964,265
3.5979,221
3.6008,216
3.6027,299
3.6046,427
3.6066,494
3.6088,442
3.61,350
3.6117,275
3.6146,225
3.6165,200
3.6186,254
3.6198,377
3.6217,476
3.6237,459
3.6256,371
3.6292,287
3.6303,229
3.6325,192
3.6337,215
3.6355,321
3.6373,442
3.6408,468
3.643,392
3.6441,303
3.6455,239
3.648,195
3.6498,190
3.6518,274
3.6536,401
3.6555,468
3.6587,416
3.6606,323
3.6619,249
3.6643,199
3.6662,175
3.6672,230
3.669,353
3.6725,453
3.6743,438
3.6763,349
3.6775,268
3.6804,213
3.6832,178
3.6843,203
3.6866,312
3.6878,436
3.6897,465
3.6916,391
3.694,304
3.6951,243
3.6969,203
3.7004,202
3.7028,290
3.7044,423
3.7056,493
3.7076,445
3.71,357
3.7125,286
3.7146,241
3.7158,221
3.7182,280
3.7194,407
3.7213,509
3.7246,496
3.7261,410
3.7287,330
3.7303,276
3.7315,242
3.7333,268
3.7351,379
3.7388,499
3.7406,527
3.7427,452
3.7439,365
3.7464,299
3.7479,257
3.7508,254
3.7526,340
3.7545,468
3.7566,534
3.7583,482
3.7595,392
3.7613,317
3.7645,268
3.7663,244
3.7685,301
3.7697,425
3.7719,524
3.7745,507
3.7764,420
3.7783,338
3.7801,281
3.7821,245
3.7844,270
3.7856,380
3.7879,498
3.7905,523
3.7926,446
3.7938,358
3.7959,293
3.7989,250
3.801,247
3.8022,334
3.8046,463
3.8058,528
3.808,475
3.8109,385
3.8126,311
3.8145,263
3.8165,240
3.8184,297
3.8208,422
3.8223,520
3.8233,503
3.8253,416
3.8288,334
3.8305,279
3.8316,244
3.8335,270
3.8368,382
3.8385,501
3.8404,526
3.8422,449
3.8444,362
3.8459,297
3.849,254
3.8502,251
3.8525,338
3.8537,466
3.8557,532
3.8577,479
3.8596,388
3.8615,314
3.8634,266
3.8653,243
3.8676,300
3.8703,426
3.8721,523
3.8744,505
3.8756,417
3.8776,336
3.8797,281
3.8827,246
3.8843,273
3.8854,383
3.8888,502
3.8907,525
3.8929,449
3.8941,362
3.8963,297
3.8978,255
3.9007,253
3.9022,341
3.9044,469
3.9055,533
3.9077,479
3.9111,389
3.9121,314
3.9141,266
3.9163,243
3.9181,302
3.9202,428
3.9225,525
3.9236,506
3.9254,416
3.9288,334
3.9305,278
3.9323,243
3.9341,271
3.9359,383
3.9376,502
3.9393,525
3.941,447
3.9443,360
3.9464,295
3.9477,252
3.9507,250
3.9526,338
3.9546,467
3.9565,530
3.959,476
3.9602,385
3.9625,311
3.9635,263
3.9654,239
3.9672,297
3.9709,422
3.9727,518
3.9745,498
3.9767,409
3.9778,327
3.9803,271
3.9826,236
3.9837,264
3.9856,376
3.9879,494
3.991,513
3.9925,433
3.9943,341
3.9954,274
3.9972,229
4.0005,228
4.0022,316
4.0039,445
4.0056,509
4.0078,453
4.0107,361
4.0123,286
4.0141,238
4.016,217
4.0183,278
4.0195,406
4.0214,506
4.0232,488
4.0267,401
4.0285,320
4.0301,265
4.0324,231
4.0336,259
4.0355,373
4.0378,493
4.0405,515
4.0427,438
4.0443,352
4.0453,288
4.0478,248
4.0507,249
4.053,341
4.0547,471
4.0559,535
4.0578,480
4.0597,389
4.0615,314
4.0634,264
4.0654,242
4.0672,302
4.071,429
4.071,525
4.0747,504
4.0769,415
4.0786,333
4.0799,276
4.0828,241
4.0846,270
4.0869,384
4.0879,502
4.0898,523
4.0918,444
4.0937,356
4.0953,290
4.0973,247
4.1012,247
4.1024,338
4.1046,467
4.1059,529
4.1085,469
4.1097,372
4.1116,288
4.1138,230
4.1167,197
4.1186,243
4.1204,351
4.1223,423
4.1245,369
4.1257,245
4.1276,134
4.1306,54
4.1326,1
4.1349,22
4.1364,136
4.1383,269
4.1395,311
4.1413,262
4.1449,223
4.1466,225
4.1485,241
4.151,283
4.1525,395
4.1537,526
4.1556,580
4.1574,510
4.1614,403
4.1625,313
4.1642,254
4.1661,226
4.1681,286
4.1697,415
4.1721,513
4.1733,494
4.1767,408
4.1783,328
4.1801,273
4.182,239
4.1843,271
4.1855,386
4.1874,504
4.1892,523
4.1927,444
4.1945,356
4.1966,290
4.1977,247
4.1998,248
4.2017,341
4.2036,471
4.2059,532
4.2089,474
4.2108,383
4.2125,307
4.214,257
4.2164,236
4.2176,298
4.2195,425
4.2218,520
4.2229,497
4.2265,407
4.2284,324
4.2305,267
4.2325,232
4.2343,263
4.2362,377
4.2385,495
4.2397,514
4.2417,434
4.2437,345
4.2459,279
4.247,236
4.2503,238
4.2522,329
4.2545,458
4.256,519
4.259,460
4.2619,369
4.2619,294
4.2644,245
4.2656,223
4.2679,286
4.2704,414
4.272,509
4.2738,486
4.2756,395
4.2774,311
4.2792,255
4.2824,219
4.2842,250
4.2853,365
4.2885,482
4.2904,500
4.2922,419
4.2944,329
4.2958,263
4.2983,220
4.2995,222
4.3012,313
4.3028,442
4.3064,501
4.3082,442
4.3103,350
4.3116,275
4.3133,226
4.3151,204
4.3167,267
4.3202,394
4.322,487
4.3239,461
4.3263,370
4.3274,285
4.3301,229
4.3312,193
4.333,224
4.3348,337
4.3384,456
4.3403,471
4.3426,390
4.3442,299
4.346,234
4.3476,191
4.3507,193
4.3525,285
4.3541,415
4.3557,473
4.3587,413
4.3599,319
4.3626,246
4.3636,196
4.3656,174
4.3675,238
4.3693,366
4.373,460
4.3749,434
4.3762,343
4.3786,261
4.3796,206
4.3815,171
4.3833,204
4.3851,319
4.3889,439
4.3907,457
4.3926,378
4.3938,291
4.3959,230
4.3988,191
4.401,197
4.4022,292
4.4041,425
4.4065,486
4.4078,430
4.4108,340
4.4125,271
4.4144,225
4.4164,209
4.4187,276
4.4199,409
4.4227,505
4.4239,483
4.4258,396
4.4278,316
4.4303,263
4.4315,231
4.4334,267
4.4352,385
4.4385,503
4.4407,520
4.4419,441
4.4437,355
4.4459,290
4.4488,249
4.451,253
4.4522,349
4.4542,479
4.4565,536
4.4577,478
4.4596,387
4.4615,313
4.4633,265
4.467,245
4.467,311
4.4707,440
4.4726,532
4.4739,506
4.4759,415
4.4788,333
4.4801,276
4.4825,242
4.4844,275
4.4855,391
4.4874,508
4.491,522
4.4928,440
4.4953,353
4.4963,288
4.4986,246
4.4998,250
4.5017,345
4.5036,474
4.5059,530
4.5089,470
4.5105,379
4.5116,306
4.5137,258
4.5167,240
4.5186,306
4.5206,435
4.5225,527
4.5235,500
4.5253,410
4.5285,328
4.5285,273
4.5326,239
4.5345,275
4.5368,391
4.5383,508
4.5394,521
4.5412,440
4.545,353
4.545,288
4.5487,247
4.5508,252
4.5523,349
4.5535,477
4.5558,533
4.5589,472
4.5601,381
4.5624,307
4.5635,259
4.5653,241
4.569,309
4.5695,437
4.5724,529
4.5743,501
4.5764,412
4.5776,331
4.5797,276
4.5826,243
4.5849,278
4.5861,395
4.5884,511
4.5896,524
4.5915,443
4.5934,355
4.5952,291
4.599,250
4.6012,256
4.6022,353
4.6041,481
4.6059,536
4.6078,475
4.6097,383
4.6122,310
4.6135,262
4.6166,244
4.6181,311
4.6203,439
4.6215,530
4.6233,501
4.6273,410
4.6284,329
4.6284,275
4.6284,242
4.6344,279
4.6366,397
4.6378,512
4.6396,524
4.6415,442
4.6433,354
4.6452,290
4.6491,249
4.6503,255
4.6526,352
4.6538,480
4.6565,534
4.6581,472
4.6593,382
4.6627,308
4.6642,259
4.6667,241
4.6679,309
4.6698,438
4.6718,529
4.6737,500
4.6761,409
4.6789,328
4.6807,273
4.682,240
4.6843,278
4.6859,396
4.6889,512
4.6905,522
4.6921,440
4.6938,353
4.6963,288
4.6984,246
4.6999,252
4.7026,349
4.7045,477
4.7062,528
4.7078,465
4.7106,373
4.7124,300
4.7138,252
4.7149,234
4.7186,302
4.7204,431
4.7223,519
4.7246,486
4.7258,394
4.7278,311
4.7296,254
4.7316,218
4.7333,253
4.7369,370
4.7388,484
4.7406,494
4.7428,412
4.7443,324
4.7453,261
4.7473,220
4.7508,228
4.7529,325
4.7541,455
4.756,510
4.7584,449
4.7603,360
4.7627,289
4.7647,243
4.7669,227
4.7685,297
4.7697,427
4.7716,515
4.7734,484
4.7769,395
4.7785,315
4.7801,263
4.7819,232
4.7837,272
4.7855,392
4.7877,508
4.7908,518
4.7924,437
4.7947,351
4.7962,287
4.7978,246
4.7988,252
4.8025,349
4.8047,477
4.806,528
4.8086,464
4.8098,373
4.8123,301
4.8137,254
4.8149,238
4.8186,307
4.8204,437
4.8227,525
4.8238,494
4.8258,404
4.8281,323
4.8291,269
4.8309,236
4.8344,275
4.8356,394
4.8379,508
4.839,517
4.8408,433
4.8444,342
4.8461,273
4.8478,224
4.8496,223
4.8515,308
4.8535,422
4.8555,453
4.8579,365
4.859,242
4.8624,140
4.8642,63
4.8666,23
4.8678,76
4.8704,195
4.8716,288
4.8736,269
4.8755,198
4.8773,149
4.879,144
4.8827,178
4.8845,277
4.8867,436
4.8884,568
4.8897,578
4.892,485
4.8949,382
4.8963,302
4.8979,247
4.8998,246
4.9017,339
4.9037,466
4.9056,517
4.9078,455
4.9106,367
4.9126,298
4.9139,253
4.9158,239
4.9182,311
4.9193,441
4.9228,528
4.9247,494
4.9258,403
4.9278,323
4.9297,270
4.9317,239
4.9343,279
4.9355,398
4.9374,510
4.9393,516
4.9428,432
4.9446,345
4.9464,282
4.9482,241
4.9507,251
4.9519,350
4.9537,477
4.9556,526
4.9575,461
4.9594,370
4.9611,299
4.9647,252
4.9669,237
4.9681,308
4.9699,437
4.9718,521
4.9737,486
4.9757,394
4.9789,313
4.9808,259
4.982,228
4.9838,268
4.9857,387
4.9874,499
4.9908,503
4.9926,419
4.9948,331
4.9964,269
4.9979,228
5.0005,237
5.0025,334
5.0046,462
5.0065,509
5.0087,444
5.01,354
5.0117,284
5.0133,238
5.0157,223
5.0177,294
5.0198,423
5.0215,509
5.0235,474
5.0255,383
5.0275,303
5.03,249
5.032,217
5.0345,256
5.0366,374
5.0366,485
5.0386,488
5.0406,403
5.0426,315
5.0456,252
5.0476,211
5.0502,220
5.0519,318
5.0536,445
5.0553,491
5.057,424
5.0586,331
5.0617,261
5.0617,214
5.0617,199
5.0617,271
5.0617,399
5.0617,482
5.0617,445
5.0617,352
5.0778,272
5.0778,218
5.0778,187
5.0778,229
5.0868,347
5.0877,460
5.0877,463
5.0877,378
5.0877,290
5.0952,229
5.097,187
5.097,197
5.097,296
5.1033,423
5.1056,469
5.1056,401
5.1089,307
5.1118,236
5.1142,189
5.1142,174
5.1142,247
5.1142,377
5.1142,462
5.1142,427
5.1142,335
5.1276,259
5.1276,207
5.1276,177
5.1276,221
5.1345,342
5.1345,458
5.1345,465
5.1345,384
5.1433,301
5.1433,243
5.1433,207
5.1433,222
5.1433,325
5.1433,456
5.1433,504
5.1433,440
5.1595,352
5.1595,284
5.1595,241
5.1595,230
5.1595,306
5.1595,439
5.1595,524
5.1595,489
5.1755,399
5.1755,321
5.1755,269
5.1755,238
5.1755,281
5.1755,402
5.1755,512
5.1755,515
5.1916,431
5.1916,347
5.1916,286
5.1916,248
5.1916,260
5.1916,362
5.1916,488
5.1916,532
5.2076,465
5.2076,374
5.2076,303
5.2076,257
5.2076,244
5.2076,318
5.2076,447
5.2076,529
5.2235,490
5.2235,400
5.2235,321
5.2235,269
5.2235,239
5.2235,284
5.2344,405
5.2344,515
5.2396,516
5.2396,432
5.2396,346
5.2396,285
5.2396,245
5.2396,258
5.2396,359
5.2396,484
5.2556,528
5.2556,460
5.2556,370
5.2556,300
5.2556,254
5.2556,242
5.2556,317
5.2556,446
5.2715,528
5.2735,491
5.2755,400
5.2776,322
5.2796,269
5.2816,239
5.2816,283
5.2816,404
5.2875,514
5.2875,515
5.2875,430
5.2875,345
5.2875,284
5.2875,244
5.2875,257
5.2875,360
5.3034,486
5.3034,530
5.3034,463
5.3034,373
5.3034,303
5.3034,258
5.3034,246
5.3034,322
5.3195,452
5.3195,534
5.3195,495
5.3195,405
5.3195,326
5.3195,273
5.3195,243
5.3195,287
5.336,408
5.3366,516
5.3366,515
5.3366,430
5.3366,344
5.3366,283
5.3366,244
5.3366,258
5.3515,363
5.3539,489
5.3555,531
5.3571,463
5.3587,372
5.362,301
5.3636,254
5.3656,242
5.3674,319
5.3694,449
5.3714,530
5.3734,491
5.3754,401
5.3774,323
5.3794,271
5.3814,242
5.3832,287
5.3852,408
5.3872,515
5.3892,514
5.3912,428
5.3932,343
5.3953,283
5.3973,245
5.399,261
5.401,366
5.403,491
5.405,533
5.407,464
5.409,374
5.411,305
5.4131,260
5.4148,249
5.4168,326
5.4188,454
5.4208,532
5.4228,489
5.4248,396
5.4268,317
5.4289,265
5.4306,236
5.4326,282
5.4346,405
5.4366,513
5.4386,510
5.4406,424
5.4426,338
5.4446,277
5.4484,236
5.4484,248
5.4504,350
5.4544,473
5.4544,510
5.4564,438
5.4584,346
5.4622,275
5.4642,229
5.4662,218
5.4682,295
5.4702,424
5.4722,504
5.4742,462
5.4762,372
5.478,295
5.4792,245
5.4792,218
5.4792,267
5.4792,392
5.4792,502
5.4792,500
5.4792,415
5.4938,331
5.4959,272
5.4979,233
5.4999,249
5.5019,354
5.5039,481
5.5059,522
5.5079,454
5.5097,367
5.5117,299
5.5137,254
5.5157,244
5.5177,321
5.5197,450
5.522,528
5.5227,486
5.5258,394
5.5278,315
5.5298,263
5.5318,235
5.5338,282
5.5348,405
5.5368,514
5.5388,511
5.5418,425
5.5438,341
5.5459,280
5.5479,241
5.5499,258
5.5519,363
5.5539,487
5.5559,525
5.5576,454
5.5597,363
5.5617,293
5.5637,249
5.5657,239
5.5677,316
5.5697,443
5.5717,513
5.5735,462
5.5755,359
5.5775,268
5.5795,199
5.5815,150
5.5835,173
5.5855,266
5.5875,347
5.5893,317
5.5893,213
5.5893,118
5.5893,52
5.5965,18
5.5985,50
5.6022,175
5.6035,333
5.6052,427
5.6069,421
5.6103,387
5.6118,352
5.6135,318
5.6149,306
5.6167,375
5.6201,487
5.6219,547
5.6238,490
5.6256,389
5.6274,307
5.6304,254
5.6324,228
5.6335,280
5.6352,406
5.6386,515
5.6403,512
5.6426,427
5.6437,343
5.6454,283
5.6473,246
5.649,263
5.6525,370
5.6543,494
5.6555,530
5.6574,457
5.6592,366
5.6616,296
5.6644,250
5.6666,240
5.6682,319
5.6693,450
5.6712,526
5.6747,482
5.6765,391
5.6786,313
5.6796,263
5.6815,235
5.6833,285
5.6851,409
5.6886,515
5.6905,507
5.6923,420
5.6935,334
5.6953,273
5.6985,234
5.7006,252
5.7018,358
5.7038,483
5.7057,519
5.7078,446
5.7107,355
5.7107,285
5.7145,239
5.7168,231
5.7183,311
5.7194,441
5.7213,517
5.7231,472
5.7263,380
5.7285,302
5.7297,249
5.7316,221
5.7334,271
5.7369,394
5.7389,499
5.7404,491
5.7417,404
5.7435,318
5.7454,258
5.749,218
5.7511,236
5.7525,341
5.7537,465
5.7564,500
5.7587,427
5.7603,336
5.7614,269
5.7632,224
5.7668,216
5.7689,297
5.7705,427
5.7715,502
5.7734,455
5.7753,362
5.7787,283
5.7804,230
5.7827,201
5.7842,251
5.7854,374
5.7878,480
5.7908,471
5.7923,383
5.7935,296
5.7954,236
5.7973,196
5.8007,215
5.8026,321
5.8039,447
5.8065,482
5.8083,408
5.8095,317
5.8119,249
5.8131,203
5.8171,195
5.8186,276
5.8203,405
5.8215,479
5.8234,431
5.8252,336
5.8288,259
5.8306,206
5.8322,178
5.8333,229
5.8352,353
5.8383,458
5.8402,447
5.8419,357
5.8437,272
5.8464,213
5.8484,177
5.8503,200
5.8513,309
5.8531,437
5.8564,472
5.8577,400
5.8595,310
5.8612,245
5.8643,202
5.8658,197
5.8675,281
5.8692,415
5.8727,492
5.8745,447
5.8756,358
5.8773,284
5.8795,236
5.8822,213
5.8838,269
5.8857,396
5.8875,503
5.8894,495
5.8912,410
5.8947,327
5.8971,270
5.8981,234
5.9,258
5.9019,369
5.9037,494
5.9054,528
5.909,455
5.91,366
5.9119,298
5.9142,254
5.9153,249
5.917,334
5.9203,464
5.9218,537
5.9235,488
5.9253,394
5.9288,316
5.9308,264
5.9322,238
5.9333,292
5.9352,419
5.9381,524
5.9402,514
5.9415,427
5.9432,342
5.9469,281
5.948,243
5.9498,265
5.9515,374
5.9532,498
5.9549,530
5.9583,456
5.9604,365
5.962,295
5.9638,251
5.9655,244
5.9676,328
5.9707,460
5.9722,532
5.9733,482
5.9751,391
5.9786,313
5.9803,261
5.9814,235
5.9831,288
5.9848,415
5.9883,518
5.9897,507
5.9915,419
5.9947,334
5.9973,275
5.9987,237
5.9998,261
6.0015,371
6.0032,493
6.0049,523
6.0086,448
6.0097,359
6.0114,291
6.013,246
6.0165,242
6.0186,328
6.0197,461
6.0214,533
6.0232,482
6.0249,390
6.0284,311
6.0298,259
6.0317,234
6.0334,289
6.0366,417
6.0378,519
6.0395,506
6.0412,416
6.0447,329
6.0465,269
6.0483,231
6.0501,255
6.052,367
6.0538,491
6.0561,521
6.0577,444
6.0605,352
6.062,283
6.065,238
6.0664,234
6.0684,320
6.0695,453
6.0712,523
6.0744,473
6.0761,380
6.0795,301
6.0804,248
6.0815,223
6.0832,278
6.0866,406
6.0889,509
6.0889,496
6.092,407
6.0939,321
6.0966,261
6.0971,224
6.0988,248
6.1021,360
6.104,484
6.1064,514
6.1075,439
6.1092,349
6.1126,281
6.1145,237
6.1156,234
6.1173,321
6.1192,453
6.121,524
6.1244,472
6.1258,380
6.1276,303
6.1294,252
6.1312,228
6.133,285
6.1365,414
6.1376,516
6.1394,502
6.1411,413
6.1446,328
6.1464,269
6.148,232
6.1498,258
6.1515,371
6.1532,494
6.1549,522
6.1584,446
6.16,355
6.1618,286
6.1639,241
6.1649,239
6.1685,327
6.1704,459
6.1715,527
6.1732,472
6.175,377
6.1781,297
6.1802,242
6.1813,216
6.183,273
6.1864,402
6.1886,505
6.1897,490
6.1914,401
6.1933,315
6.195,257
6.1984,219
6.1995,246
6.2012,359
6.2029,483
6.2066,512
6.2078,437
6.2098,348
6.2114,281
6.2135,237
6.2166,236
6.2181,325
6.2192,458
6.2227,527
6.2245,474
6.2257,382
6.2274,305
6.2291,254
6.2308,231
6.2346,292
6.2362,424
6.2374,528
6.2393,513
6.241,423
6.2444,338
6.2464,279
6.2475,241
6.2492,268
6.2509,383
6.2545,507
6.2558,533
6.2582,455
6.2593,364
6.2612,294
6.2646,249
6.2658,247
6.2675,337
6.2693,471
6.2723,539
6.2729,486
6.2762,393
6.2799,314
6.2799,262
6.281,238
6.2843,298
6.286,428
6.2877,529
6.2894,512
6.2911,421
6.2943,332
6.2964,267
6.2978,221
6.2989,239
6.3022,341
6.3038,450
6.3055,455
6.3073,351
6.3091,231
6.3108,133
6.3141,59
6.3157,34
6.3179,108
6.3189,230
6.3224,301
6.3241,263
6.3258,191
6.3275,143
6.3295,135
6.3322,174
6.3337,295
6.3365,467
6.3371,590
6.3389,578
6.3421,481
6.3437,383
6.3462,306
6.3473,255
6.3495,273
6.3522,381
6.3537,500
6.3554,523
6.3572,446
6.3589,359
6.3623,293
6.364,250
6.3656,252
6.3674,344
6.3691,477
6.3709,543
6.3742,487
6.3757,394
6.3775,316
6.3799,265
6.3822,242
6.3828,304
6.3862,434
6.3878,533
6.3895,513
6.3913,422
6.3931,337
6.3947,278
6.3982,241
6.3999,271
6.4017,386
6.4034,506
6.4052,528
6.4069,447
6.4087,356
6.4121,287
6.4136,242
6.4154,241
6.4172,332
6.419,464
6.4207,528
6.4242,472
6.4264,379
6.4275,302
6.4291,251
6.431,229
6.4344,290
6.4361,420
6.4378,518
6.4395,495
6.4413,405
6.443,319
6.4446,261
6.4484,224
6.4495,254
6.4513,369
6.453,490
6.4548,511
6.4581,431
6.4594,339
6.4612,271
6.4629,227
6.4646,227
6.468,319
6.4698,452
6.4715,514
6.4733,456
6.475,362
6.4767,283
6.4801,231
6.4819,208
6.4837,270
6.4855,399
6.4872,496
6.4889,473
6.4919,381
6.4936,296
6.4952,237
6.497,200
6.5003,231
6.5019,346
6.5038,467
6.5057,487
6.5084,406
6.51,314
6.5118,247
6.5134,202
6.5153,203
6.5171,294
6.5189,425
6.5223,486
6.524,428
6.5259,333
6.5282,257
6.5292,206
6.5309,184
6.5327,248
6.536,378
6.5376,476
6.5394,451
6.5412,359
6.5429,273
6.5446,214
6.548,178
6.5499,209
6.5518,324
6.5535,446
6.555,464
6.5567,383
6.5601,292
6.5618,226
6.5636,182
6.5653,185
6.5671,279
6.57,412
6.5719,474
6.5738,416
6.5755,321
6.5773,247
6.5789,198
6.5823,179
6.5843,246
6.5853,379
6.5871,479
6.5904,458
6.592,369
6.5937,286
6.5958,231
6.5985,198
6.5996,234
6.6013,354
6.6031,478
6.6048,500
6.6081,422
6.61,333
6.6117,270
6.6132,228
6.6149,234
6.6182,331
6.6199,466
6.6216,529
6.6232,472
6.6251,381
6.627,307
6.6287,258
6.632,239
6.6337,306
6.6354,438
6.637,533
6.6386,509
6.6424,418
6.6435,334
6.6453,276
6.647,241
6.6504,275
6.6525,394
6.6536,514
6.6554,531
6.6579,450
6.6595,360
6.6612,293
6.663,249
6.6648,252
6.6681,347
6.6699,479
6.6722,538
6.6732,478
6.6759,385
6.6782,309
6.6798,259
6.6818,238
6.6828,305
6.6863,436
6.6885,531
6.6896,505
6.6913,413
6.6929,329
6.6968,271
6.6982,236
6.6993,270
6.701,389
6.7027,509
6.7062,526
6.7079,445
6.7097,356
6.7113,289
6.7131,245
6.7148,249
6.718,346
6.7198,479
6.7214,537
6.723,477
6.7247,383
6.728,307
6.7298,256
6.7315,236
6.7332,303
6.7348,435
6.7377,529
6.7394,502
6.7411,411
6.7429,328
6.7446,270
6.748,236
6.7498,272
6.7515,391
6.754,510
6.7558,525
6.7575,443
6.7592,354
6.7609,287
6.7643,244
6.7661,249
6.7679,348
6.7695,479
6.7713,537
6.773,477
6.7748,385
6.7784,310
6.7794,261
6.781,243
6.7827,311
6.7861,443
6.7878,537
6.7896,509
6.7913,418
6.7931,335
6.7947,277
6.7981,242
6.8003,279
6.8016,398
6.8034,514
6.8051,528
6.8069,445
6.8102,355
6.8118,288
6.8136,245
6.8153,251
6.8172,350
6.819,482
6.8224,539
6.8241,477
6.8259,385
6.8282,309
6.8292,260
6.8309,242
6.8327,312
6.836,443
6.8372,536
6.839,508
6.8423,415
6.844,330
6.8457,273
6.8476,239
6.8494,275
6.851,395
6.8526,514
6.8559,527
6.8576,445
6.8594,356
6.8612,289
6.8629,246
6.8663,252
6.8684,351
6.8695,482
6.8713,537
6.8731,474
6.8749,381
6.8782,304
6.8801,253
6.8822,234
6.8832,303
6.8849,435
6.8866,526
6.8899,496
6.8918,403
6.8935,317
6.8958,258
6.8979,222
6.8996,259
6.9022,377
6.9037,493
6.9059,504
6.9076,421
6.9093,330
6.9111,264
6.9128,221
6.9163,228
6.918,325
6.9198,457
6.9216,512
6.9234,449
6.9251,357
6.9284,283
6.9302,236
6.9323,220
6.9334,292
6.9352,426
6.9374,518
6.9401,487
6.9415,395
6.9433,312
6.9454,255
6.9484,222
6.9498,263
6.9515,387
6.9534,506
6.9553,519
6.9575,437
6.9603,348
6.9619,283
6.9641,241
6.9652,249
6.967,350
6.9705,481
6.9721,535
6.9739,471
6.975,378
6.9784,303
6.9801,252
6.9825,236
6.9836,307
6.9854,440
6.9871,530
6.9889,498
6.9922,405
6.994,322
6.9958,265
6.9975,231
6.9993,271
7.001,394
7.0044,512
7.0062,522
7.008,438
7.0099,349
7.0116,282
7.0133,238
7.015,242
7.0166,334
7.02,456
7.0214,498
7.0231,418
7.0248,304
7.0282,208
7.03,129
7.0323,80
7.0334,121
7.0352,227
7.037,298
7.0404,254
7.0421,160
7.0439,87
7.046,46
7.0471,37
7.0489,119
7.0522,304
7.0539,491
7.0559,551
7.0577,494
7.0595,412
7.0612,340
7.0631,282
7.0649,274
7.0683,362
7.07,481
7.0719,526
7.0738,459
7.0755,366
7.0773,292
7.0789,246
7.0824,233
7.0841,309
7.0859,445
7.0878,535
7.0897,501
7.0914,408
7.0932,324
7.0948,267
7.0982,234
7.0999,276
7.1017,400
7.1034,516
7.1052,524
7.107,439
7.1104,350
7.112,284
7.1136,241
7.1153,251
7.1171,355
7.1188,485
7.1221,535
7.1239,468
7.1257,373
7.1274,297
7.1303,247
7.132,231
7.1338,306
7.1357,439
7.1374,527
7.1392,492
7.1409,398
7.1428,315
7.1456,258
7.1473,225
7.149,268
7.1524,391
7.1541,507
7.156,512
7.1578,426
7.1592,334
7.161,269
7.1643,226
7.166,236
7.1679,339
7.1698,471
7.1717,520
7.1735,452
7.1754,358
7.1772,282
7.179,233
7.1806,218
7.184,294
7.1858,428
7.1876,515
7.1893,477
7.1911,382
7.1928,298
7.1964,241
7.1983,209
7.1994,252
7.2012,376
7.203,491
7.2063,496
7.208,409
7.2103,317
7.2131,252
7.2147,209
7.2165,220
7.2182,322
7.22,454
7.2224,501
7.2235,432
7.2253,335
7.2285,260
7.2304,209
7.2315,194
7.2332,269
7.2366,404
7.2384,490
7.2402,452
7.2413,356
7.2431,272
7.2447,215
7.2481,183
7.25,227
7.2518,351
7.2535,465
7.2553,468
7.2585,380
7.26,289
7.2619,224
7.2637,181
7.2655,193
7.2672,296
7.269,428
7.272,474
7.2738,405
7.2755,309
7.2771,236
7.279,186
7.2823,173
7.2841,250
7.2861,385
7.2876,471
7.2903,433
7.2922,338
7.2933,255
7.295,201
7.2984,170
7.3006,218
7.3017,345
7.3035,463
7.3052,467
7.3069,383
7.3104,295
7.3119,233
7.3137,193
7.3154,210
7.3176,316
7.3207,452
7.3218,501
7.3237,435
7.3255,344
7.3272,273
7.3307,227
7.3321,217
7.3339,297
7.3358,436
7.3385,523
7.3391,487
7.3426,395
7.3444,315
7.3464,261
7.3486,231
7.3497,279
7.3514,405
7.3531,520
7.3566,522
7.358,435
7.3599,345
7.363,280
7.3641,237
7.3659,252
7.3677,359
7.3694,489
7.3711,534
7.3745,465
7.376,372
7.3789,298
7.3807,249
7.3818,238
7.3835,317
7.3852,451
7.387,535
7.3905,495
7.3919,400
7.3937,317
7.3954,260
7.3972,230
7.399,277
7.4026,404
7.4037,517
7.4054,516
7.4085,428
7.4103,338
7.4118,274
7.4135,232
7.4153,248
7.4172,356
7.419,486
7.4223,530
7.4245,459
7.4256,366
7.4279,292
7.4306,243
7.4328,232
7.4343,312
7.4355,448
7.4385,531
7.4392,490
7.4424,396
7.4445,313
7.4458,258
7.4469,228
7.4505,278
7.4526,406
7.4542,519
7.4557,518
7.4568,430
7.4605,342
7.4624,277
7.4635,236
7.4655,253
7.4678,361
7.4707,489
7.4725,532
7.4743,462
7.4755,368
7.4775,295
7.4794,247
7.4826,237
7.4846,318
7.4863,454
7.4875,535
7.4898,494
7.4929,399
7.4947,317
7.4965,262
7.498,233
7.4992,283
7.5028,411
7.5042,524
7.5061,522
7.5084,433
7.5101,344
7.5121,279
7.5146,238
7.5162,256
7.5174,365
7.5208,494
7.5226,535
7.5243,463
7.5254,369
7.5286,295
7.53,248
7.5324,238
7.5336,320
7.5354,455
7.5374,536
7.5391,494
7.5424,400
7.5447,318
7.5465,263
7.5477,234
7.5496,284
7.5519,411
7.5549,523
7.5563,519
7.5583,431
7.5595,342
7.5618,278
7.5629,237
7.5666,255
7.5685,365
7.5697,494
7.5716,535
7.5738,462
7.5766,368
7.5787,294
7.5797,245
7.5816,236
7.5834,318
7.5854,454
7.5886,535
7.5905,491
7.5917,397
7.5935,313
7.5953,257
7.5971,228
7.6003,279
7.6024,407
7.6036,518
7.6055,513
7.6074,424
7.6092,333
7.6124,269
7.6146,227
7.6162,247
7.618,357
7.619,486
7.6226,525
7.6241,450
7.6253,355
7.629,279
7.6305,228
7.6322,217
7.6345,299
7.6361,433
7.6387,512
7.6399,467
7.643,371
7.6447,288
7.6457,233
7.6476,205
7.6496,257
7.6516,386
7.6536,497
7.6567,492
7.6586,404
7.6606,316
7.6624,255
7.6649,216
7.6664,238
7.6682,350
7.6703,480
7.6714,519
7.6731,446
7.6765,352
7.6789,279
7.68,232
7.6824,226
7.6836,311
7.6855,450
7.6891,529
7.6908,484
7.6925,391
7.6942,310
7.696,256
7.6984,228
7.6996,282
7.7014,411
7.7046,520
7.7065,512
7.7084,423
7.7096,334
7.7119,271
7.713,231
7.7166,252
7.7185,365
7.7195,493
7.7212,529
7.723,455
7.7265,361
7.7287,288
7.7302,240
7.7314,234
7.7333,319
7.7357,455
7.7381,533
7.7401,486
7.7425,391
7.7446,309
7.7457,251
7.7477,217
7.7497,263
7.7524,383
7.7535,481
7.7554,457
7.7573,348
7.7607,235
7.7624,142
7.7635,68
7.7653,58
7.7687,145
7.7702,255
7.7724,281
7.7736,209
7.7754,127
7.7773,74
7.7791,52
7.7826,93
7.7845,246
7.7857,446
7.7876,568
7.7895,544
7.7929,453
7.7949,363
7.7966,291
7.7984,247
7.7996,288
7.8015,408
7.8038,511
7.8066,499
7.8088,410
7.8105,324
7.8115,264
7.8132,227
7.8167,252
7.8186,367
7.8197,496
7.8216,531
7.8235,456
7.8254,363
7.8277,291
7.8306,243
7.8325,236
7.8337,322
7.8356,457
7.8374,532
7.8403,483
7.8426,388
7.8445,307
7.846,253
7.8483,227
7.8495,283
7.8514,413
7.8533,520
7.8553,509
7.8587,419
7.8607,330
7.8617,268
7.8639,227
7.865,250
7.8684,363
7.8696,490
7.8716,522
7.8734,446
7.8767,353
7.8786,281
7.8801,234
7.8813,229
7.8848,316
7.8867,451
7.8883,525
7.8896,475
7.8921,379
7.8949,297
7.8949,242
7.8986,215
7.9006,272
7.9021,402
7.9033,509
7.9069,497
7.9069,405
7.9105,316
7.9124,254
7.9135,214
7.9154,239
7.9185,353
7.9205,480
7.9217,510
7.924,433
7.9267,337
7.9286,265
7.9299,218
7.9328,212
7.935,301
7.9366,436
7.9382,508
7.9405,457
7.9429,361
7.9452,279
7.9462,224
7.9485,198
7.9497,255
7.9517,385
7.9536,490
7.9563,476
7.9573,384
7.9592,294
7.9626,232
7.9645,192
7.9669,216
7.9685,328
7.9696,455
7.9715,484
7.9734,405
7.9752,309
7.9786,238
7.9805,191
7.9828,187
7.9844,275
7.9856,410
7.9878,481
7.9908,428
7.9929,330
7.9945,249
7.9955,195
7.9974,168
8.001,227
8.0027,357
8.0044,463
8.0056,448
8.0078,356
8.011,268
8.012,206
8.0142,167
8.0164,193
8.0177,307
8.0205,435
8.0216,464
8.0236,386
8.0255,292
8.0288,222
8.0309,176
8.0325,175
8.0342,268
8.0358,406
8.039,480
8.0408,429
8.0424,336
8.0436,260
8.0455,209
8.0475,187
8.0494,250
8.0512,385
8.053,492
8.0567,480
8.0582,391
8.0594,306
8.0626,248
8.0647,212
8.0664,243
8.0683,361
8.0696,489
8.0715,518
8.0735,442
8.0755,350
8.0773,281
8.0791,236
8.0827,235
8.0847,328
8.0862,464
8.0874,534
8.0893,481
8.0928,387
8.0942,307
8.0964,254
8.0979,230
8.1007,291
8.1026,423
8.1042,527
8.1054,511
8.1073,420
8.1109,333
8.1125,272
8.1146,234
8.1162,262
8.1174,379
8.121,504
8.1227,530
8.1244,451
8.1256,359
8.128,287
8.1305,242
8.1319,241
8.1346,333
8.1362,469
8.1374,537
8.1394,482
8.1427,387
8.1448,307
8.1465,254
8.1477,231
8.1496,293
8.1515,424
8.1534,526
8.1553,507
8.1589,415
8.1606,328
8.1618,267
8.1636,230
8.1655,259
8.1675,377
8.1694,502
8.1712,526
8.1747,447
8.1768,355
8.1783,285
8.1796,240
8.183,241
8.184,334
8.1858,469
8.188,536
8.1892,481
8.1931,386
8.1951,307
8.196,255
8.1984,232
8.1996,295
8.2019,428
8.205,529
8.2066,510
8.2083,418
8.2095,331
8.2138,270
8.2138,233
8.2167,263
8.2183,382
8.2204,506
8.2216,530
8.2236,450
8.2259,357
8.2289,287
8.2305,241
8.2327,241
8.2343,334
8.2355,469
8.2374,535
8.2393,480
8.2427,385
8.2448,306
8.2464,254
8.2479,232
8.2514,296
8.2524,429
8.2544,530
8.2557,509
8.2576,417
8.2596,331
8.2628,271
8.2647,234
8.2663,265
8.2675,384
8.2693,507
8.2711,529
8.2746,449
8.276,358
8.278,287
8.2805,243
8.2821,244
8.2833,339
8.2872,474
8.2887,538
8.2904,480
8.2921,385
8.295,306
8.2973,253
8.2985,232
8.3003,297
8.3026,430
8.3043,530
8.3059,510
8.3088,417
8.3105,330
8.3119,270
8.3147,233
8.317,266
8.3186,385
8.3203,508
8.3215,529
8.3235,448
8.3254,355
8.3274,285
8.3293,239
8.3332,241
8.3347,337
8.3363,471
8.3375,535
8.3395,476
8.3415,380
8.3434,301
8.3451,249
8.3486,227
8.3504,292
8.3516,423
8.3535,520
8.3552,494
8.3585,399
8.3604,310
8.3614,247
8.3649,210
8.3668,242
8.368,362
8.37,485
8.3716,504
8.3747,423
8.3762,328
8.3774,259
8.3791,214
8.3828,217
8.384,314
8.386,452
8.3885,515
8.3897,458
8.3916,365
8.3935,288
8.397,237
8.3989,218
8.4004,285
8.4016,418
8.4035,516
8.4058,493
8.4089,402
8.4106,317
8.4117,259
8.4136,226
8.4155,263
8.4178,386
8.4205,510
8.4225,529
8.4237,448
8.4255,357
8.4288,288
8.4288,243
8.4328,246
8.4338,344
8.4356,478
8.4375,539
8.4394,480
8.4425,384
8.445,307
8.4467,255
8.4483,234
8.4495,302
8.4514,434
8.4553,531
8.4567,505
8.4584,412
8.4596,325
8.4615,267
8.4649,232
8.4665,268
8.4677,390
8.4696,512
8.4715,530
8.4733,445
8.4769,347
8.4782,269
8.4807,215
8.4822,208
8.4834,291
8.4853,408
8.489,446
8.4905,354
8.4917,226
8.4937,120
8.4964,44
8.4976,3
8.4995,60
8.5015,192
8.5035,301
8.5055,294
8.5075,229
8.5095,189
8.5119,195
8.5148,221
8.5164,301
8.518,445
8.5209,571
8.5227,580
8.5245,484
8.5257,376
8.5286,293
8.5301,237
8.5327,236
8.5343,332
8.5355,468
8.5375,529
8.5394,471
8.5426,379
8.5448,303
8.5468,253
8.5482,236
8.5494,306
8.5513,441
8.5549,536
8.5564,509
8.5576,415
8.5598,328
8.5609,269
8.5643,233
8.5662,270
8.5673,391
8.5692,511
8.571,525
8.5749,443
8.5764,351
8.5776,283
8.5803,239
8.5815,245
8.5834,344
8.5853,477
8.589,534
8.5906,471
8.5916,376
8.5935,299
8.5952,248
8.5987,230
8.6005,300
8.6017,434
8.6036,528
8.6059,499
8.6088,405
8.6104,318
8.6114,259
8.6132,224
8.6149,262
8.6187,384
8.6198,503
8.6217,515
8.624,431
8.6268,339
8.6287,271
8.6304,227
8.6317,234
8.6335,333
8.6355,467
8.6374,523
8.6408,459
8.6427,364
8.6445,287
8.6455,236
8.6475,217
8.6493,287
8.6511,421
8.6546,513
8.6566,481
8.6582,387
8.6594,301
8.6618,242
8.6642,207
8.6666,245
8.6681,367
8.6694,487
8.673,499
8.6749,413
8.6765,320
8.6783,253
8.6794,209
8.6827,215
8.6843,314
8.686,448
8.6876,502
8.6894,437
8.6929,341
8.6947,266
8.6962,214
8.6977,196
8.7007,268
8.7028,401
8.7046,492
8.7062,459
8.7075,364
8.7098,277
8.7126,218
8.7144,182
8.7165,222
8.718,343
8.7191,463
8.7224,473
8.7246,387
8.7257,294
8.7279,227
8.7306,183
8.7322,190
8.7334,291
8.7352,423
8.7389,477
8.7407,412
8.742,316
8.7443,242
8.7457,191
8.7486,175
8.7503,248
8.7528,383
8.7541,474
8.756,441
8.758,348
8.7604,265
8.7617,208
8.7628,176
8.7665,219
8.7677,343
8.7695,465
8.7716,475
8.7739,392
8.7763,302
8.7775,239
8.7792,199
8.7811,211
8.7846,316
8.7866,452
8.7883,508
8.7895,446
8.7915,355
8.7948,282
8.7966,234
8.7986,221
8.8002,297
8.8019,434
8.8047,525
8.8067,493
8.8082,401
8.8095,318
8.8113,262
8.8145,231
8.8166,274
8.8183,399
8.8199,517
8.8227,525
8.8242,440
8.8267,349
8.8284,282
8.8295,240
8.8315,251
8.8338,355
8.8366,486
8.8383,536
8.8395,470
8.8413,375
8.8433,300
8.8451,251
8.8469,237
8.8508,313
8.8526,447
8.8537,536
8.8556,500
8.8576,406
8.8594,321
8.8616,264
8.8645,232
8.866,275
8.8677,399
8.8696,515
8.8715,521
8.8738,436
8.8769,345
8.8781,279
8.8807,236
8.8824,248
8.8847,352
8.8869,484
8.8885,533
8.8897,467
8.8915,372
8.8935,296
8.8971,246
8.8981,231
8.9003,307
8.9015,442
8.9035,530
8.9058,494
8.9087,401
8.9104,318
8.9114,262
8.9136,232
8.9165,277
8.9184,403
8.9196,519
8.9215,523
8.9235,437
8.9254,347
8.9272,281
8.9304,239
8.9321,252
8.9341,357
8.9352,488
8.9381,536
8.94,468
8.9419,374
8.9435,299
8.9465,250
8.9482,236
8.9503,312
8.9517,447
8.9544,533
8.9561,495
8.9578,402
8.9603,319
8.9623,263
8.9628,231
8.9662,276
8.9683,403
8.9693,519
8.9711,523
8.9744,438
8.9761,349
8.978,284
8.9805,242
8.9816,255
8.9833,361
8.9851,491
8.9887,537
8.9898,468
8.9915,374
8.9932,299
8.995,250
8.9983,237
9.0001,316
9.002,451
9.0038,536
9.0055,498
9.0073,404
9.0091,321
9.011,265
9.0146,234
9.0164,280
9.0182,406
9.0203,519
9.0221,520
9.0234,433
9.0267,344
9.0282,279
9.0303,238
9.0315,252
9.0333,359
9.035,489
9.038,534
9.0403,464
9.0414,369
9.0437,294
9.0463,245
9.0481,232
9.0505,310
9.0517,445
9.0535,530
9.0554,491
9.0579,397
9.0606,313
9.062,255
9.0641,223
9.0664,269
9.0676,394
9.0695,506
9.0714,506
9.0742,419
9.0754,329
9.0788,264
9.0806,221
9.0822,234
9.0834,338
9.0853,466
9.0886,507
9.0907,437
9.0924,343
9.0936,271
9.0955,222
9.0973,210
9.0993,289
9.1028,422
9.1049,505
9.1059,464
9.1081,373
9.1092,293
9.1125,240
9.1146,212
9.1162,261
9.1187,388
9.1205,500
9.1225,499
9.1241,413
9.1265,324
9.1276,263
9.1298,223
9.1329,241
9.1345,350
9.1357,482
9.1374,526
9.1393,457
9.1428,367
9.1446,294
9.1464,247
9.1488,237
9.1503,318
9.1515,452
9.1542,534
9.1555,492
9.1574,398
9.1609,316
9.1622,261
9.1648,231
9.1663,279
9.1675,405
9.1694,516
9.1729,513
9.1746,426
9.1761,337
9.1788,275
9.1805,234
9.182,251
9.1845,359
9.1856,487
9.1874,527
9.1892,456
9.193,363
9.194,291
9.1958,242
9.1982,228
9.1994,301
9.2017,425
9.2035,494
9.2054,438
9.2087,327
9.2104,229
9.2125,151
9.2137,94
9.2156,115
9.2175,215
9.2194,307
9.2229,291
9.2243,197
9.2265,116
9.2277,66
9.2299,45
9.2325,92
9.2346,251
9.2362,447
9.2379,545
9.2409,510
9.2421,434
9.2447,362
9.2457,301
9.2476,275
9.2494,340
9.2513,459
9.2547,527
9.2565,478
9.2576,383
9.2595,303
9.2619,252
9.2641,226
9.2668,279
9.2678,407
9.2697,517
9.2717,512
9.2737,424
9.2764,336
9.2789,275
9.2804,236
9.2827,256
9.2847,366
9.2858,494
9.2877,532
9.2894,457
9.2926,363
9.2941,291
9.2969,243
9.2983,234
9.3005,316
9.3016,451
9.3033,529
9.305,483
9.3083,389
9.3104,308
9.3115,255
9.3132,227
9.3149,280
9.3185,407
9.3196,516
9.3213,507
9.323,418
9.3264,329
9.3279,266
9.3302,226
9.3313,246
9.333,355
9.3364,483
9.3378,519
9.3397,445
9.3414,352
9.3446,280
9.3466,233
9.3477,225
9.3494,308
9.3512,442
9.3546,518
9.356,470
9.3585,375
9.3596,295
9.3613,240
9.3631,213
9.3648,266
9.3682,394
9.37,502
9.3722,492
9.3739,400
9.3766,310
9.3779,248
9.3802,208
9.3813,229
9.383,339
9.3863,466
9.3878,501
9.3895,425
9.3923,330
9.394,259
9.3966,212
9.3977,204
9.3995,287
9.4012,419
9.4029,492
9.4066,443
9.4078,347
9.4095,267
9.4112,213
9.413,186
9.4163,240
9.4187,367
9.4198,474
9.4215,463
9.4232,370
9.4249,281
9.4283,218
9.43,178
9.4323,199
9.4334,309
9.4355,437
9.4383,470
9.4399,394
9.4417,298
9.4434,228
9.4449,180
9.4484,173
9.4495,259
9.4512,392
9.4529,466
9.4567,415
9.4578,318
9.4595,239
9.4612,185
9.4647,159
9.4665,214
9.4683,341
9.4698,448
9.4715,436
9.4732,345
9.477,259
9.478,199
9.4801,163
9.4823,188
9.4834,301
9.4851,431
9.4885,464
9.49,389
9.4923,297
9.4935,229
9.4951,185
9.4989,183
9.4995,273
9.5012,410
9.5029,486
9.5066,439
9.5077,347
9.5094,271
9.5111,222
9.5129,200
9.5164,260
9.5179,393
9.5197,502
9.5215,491
9.5233,402
9.525,316
9.5284,257
9.5298,220
9.5312,246
9.5328,363
9.5364,490
9.5375,522
9.5394,445
9.5411,355
9.5445,285
9.547,239
9.5484,234
9.5495,323
9.5513,458
9.553,530
9.5567,481
9.5578,389
9.5596,310
9.5613,257
9.5647,232
9.5667,289
9.5678,419
9.5697,523
9.5714,509
9.5732,418
9.5765,332
9.5781,272
9.5798,234
9.5821,261
9.5832,376
9.5849,501
9.588,530
9.5898,453
9.5917,360
9.5934,289
9.5952,244
9.597,241
9.5989,330
9.6022,464
9.604,533
9.6058,480
9.6077,385
9.6095,305
9.6124,254
9.6139,230
9.6168,290
9.6181,421
9.62,525
9.6219,510
9.6236,420
9.6254,332
9.6285,271
9.6296,233
9.632,260
9.6339,375
9.6358,501
9.6375,530
9.6392,453
9.6409,362
9.644,292
9.6459,246
9.647,242
9.6504,331
9.6522,465
9.654,533
9.6562,480
9.6577,386
9.6588,308
9.6624,256
9.664,232
9.6659,292
9.6677,422
9.6694,524
9.6712,508
9.6728,417
9.6763,333
9.6779,274
9.6804,238
9.6815,267
9.6833,383
9.6855,507
9.6883,532
9.6904,454
9.6916,364
9.6934,295
9.6956,250
9.6984,249
9.7005,340
9.7017,473
9.7036,540
9.7059,487
9.7092,394
9.7106,316
9.7121,266
9.7148,243
9.7167,303
9.7183,433
9.7198,533
9.7228,515
9.7249,424
9.7267,340
9.7284,281
9.7295,244
9.7314,273
9.7352,389
9.7366,512
9.7382,536
9.7394,457
9.7412,365
9.7446,296
9.7462,251
9.7487,249
9.7503,341
9.7514,474
9.7534,540
9.7571,485
9.7585,391
9.7597,313
9.7614,262
9.765,238
9.7669,300
9.7683,429
9.7695,529
9.7714,508
9.7733,416
9.7765,332
9.7791,274
9.7802,237
9.7814,267
9.7833,382
9.7852,502
9.7886,523
9.7905,441
9.7922,346
9.7952,276
9.7969,230
9.7969,227
9.8008,318
9.8023,451
9.8035,515
9.8054,458
9.8082,365
9.8093,288
9.8127,237
9.8147,215
9.8162,277
9.8174,408
9.8193,507
9.8228,488
9.8246,399
9.8262,316
9.8274,260
9.8292,225
9.8329,256
9.8347,373
9.8363,494
9.8375,517
9.8403,438
9.8414,350
9.8451,284
9.8472,242
9.8486,246
9.8503,340
9.8515,473
9.8534,537
9.8569,481
9.8584,389
9.8597,314
9.8614,263
9.8646,242
9.8666,305
9.8683,434
9.8695,531
9.8718,510
9.8743,419
9.8762,335
9.878,278
9.8804,242
9.8816,274
9.8834,390
9.887,510
9.8888,529
9.8903,449
9.8915,359
9.8951,292
9.8965,248
9.899,250
9.9006,344
9.9022,475
9.9039,536
9.9066,477
9.9085,382
9.9102,301
9.9127,244
9.9147,214
9.9164,267
9.9176,382
9.9196,460
9.9215,414
9.9238,294
9.9268,183
9.9279,97
9.9303,37
9.9315,51
9.9334,155
9.9352,274
9.9387,304
9.9406,243
9.9422,180
9.9434,153
9.9469,168
9.9488,235
9.9498,380
9.9516,540
9.9535,610
9.9558,547
9.9588,442
9.9603,351
9.9614,283
9.9638,250
9.9666,306
9.9685,433
9.9697,527
9.9716,503
9.9739,415
9.9773,335
9.9783,280
9.9806,248
9.9817,282
9.9836,400
9.9855,518
9.9888,535
9.9907,454
9.9924,365
9.9936,299
9.9954,256
9.9974,260
9.9993,356
10.0033,485
10.0046,544
10.0062,483
10.0074,391
10.0093,315
10.0126,266
10.0149,247
10.0164,313
10.018,442
10.0213,535
10.0227,507
10.0243,416
10.0255,333
10.0278,276
10.0289,241
10.0329,275
10.0344,392
10.0356,510
10.0375,524
10.0394,443
10.0413,354
10.0432,288
10.0464,245
10.0488,249
10.0503,343
10.0515,473
10.0538,529
10.0565,467
10.0577,374
10.0595,298
10.0615,249
10.0636,229
10.0655,295
10.0687,424
10.0706,515
10.0723,487
10.0734,396
10.0753,313
10.0786,258
10.0802,224
10.0814,259
10.0833,376
10.0867,493
10.0885,505
10.0897,423
10.0925,333
10.094,268
10.095,225
10.0987,229
10.1001,323
10.1025,453
10.1037,507
10.1056,444
10.1079,352
10.111,279
10.112,230
10.1145,212
10.1156,279
10.1176,408
10.1195,498
10.1215,468
10.1235,375
10.1265,292
10.1277,235
10.1303,202
10.1315,237
10.1334,354
10.1374,471
10.1384,482
10.1402,398
10.1414,309
10.145,247
10.1465,204
10.1487,211
10.1503,307
10.1514,436
10.1533,490
10.155,427
10.1586,333
10.1604,261
10.1614,212
10.1646,194
10.1665,263
10.168,392
10.1708,482
10.1725,450
10.1745,358
10.1757,276
10.1775,221
10.1793,187
10.1812,224
10.1846,341
10.1862,458
10.1874,468
10.1893,384
10.1931,296
10.1944,234
10.1956,194
10.1977,203
10.2008,302
10.2025,435
10.2037,489
10.2056,428
10.2074,337
10.2093,268
10.2124,222
10.2145,209
10.2157,282
10.2183,415
10.2195,508
10.2214,479
10.2248,390
10.227,312
10.228,261
10.2303,232
10.2326,274
10.2338,396
10.2363,513
10.2375,524
10.2394,441
10.2432,355
10.2447,292
10.2458,252
10.2477,262
10.2496,362
10.2514,490
10.2533,541
10.2552,478
10.2588,387
10.2604,315
10.2614,267
10.2646,252
10.266,324
10.268,455
10.2699,542
10.2718,508
10.2738,416
10.2752,335
10.2787,280
10.2804,247
10.2823,288
10.2835,408
10.2854,522
10.2878,529
10.291,445
10.2926,357
10.2942,293
10.2954,251
10.2971,260
10.3008,361
10.302,489
10.304,538
10.3063,472
10.3075,379
10.3093,306
10.3126,258
10.3148,243
10.3166,315
10.3177,447
10.3196,534
10.3215,498
10.3252,406
10.3267,324
10.3293,269
10.3302,236
10.3314,278
10.335,400
10.3368,514
10.3384,520
10.3396,435
10.3415,347
10.3452,284
10.3452,243
10.3485,253
10.3497,356
10.3516,485
10.3546,533
10.3564,467
10.3579,374
10.3611,301
10.3621,253
10.3643,238
10.3655,312
10.3674,445
10.3707,531
10.3727,495
10.3744,403
10.3756,321
10.378,265
10.3808,233
10.3829,276
10.3845,399
10.3855,513
10.3874,518
10.3911,432
10.3922,344
10.3947,281
10.3965,240
10.3978,252
10.3996,356
10.4024,485
10.4046,533
10.4066,465
10.4082,372
10.4094,300
10.4127,252
10.4149,238
10.4165,314
10.4183,448
10.4195,534
10.4213,496
10.4252,403
10.4268,321
10.428,266
10.4306,235
10.4322,279
10.4334,403
10.437,518
10.4386,520
10.4404,433
10.4416,344
10.4449,279
10.4463,238
10.4485,251
10.4496,356
10.4515,486
10.4534,532
10.4567,463
10.4587,370
10.4604,296
10.4614,248
10.4632,236
10.4668,313
10.4691,447
10.4705,533
10.4717,494
10.4736,399
10.4755,316
10.4774,260
10.4792,229
10.4828,274
10.4844,400
10.4856,513
10.4875,514
10.4898,427
10.4932,337
10.4942,273
10.4965,230
10.498,244
10.4992,349
10.5032,478
10.5047,521
10.5063,447
10.5075,350
10.5108,274
10.5122,224
10.5144,211
10.5163,290
10.5175,426
10.5208,511
10.5231,471
10.5252,375
10.5269,293
10.5281,237
10.5304,207
10.5326,257
10.5346,387
10.5363,504
10.5375,506
10.5398,419
10.543,328
10.5446,264
10.5463,222
10.5484,237
10.5509,347
10.5529,481
10.5545,527
10.5557,458
10.5579,364
10.561,291
10.562,243
10.5642,232
10.5665,316
10.5677,455
10.5696,541
10.5715,500
10.5738,403
10.5748,318
10.5783,260
10.5805,229
10.5817,278
10.5835,409
10.5854,525
10.5887,524
10.5904,432
10.5916,340
10.5935,272
10.5953,229
10.5991,247
10.6007,360
10.6022,495
10.6035,540
10.6055,465
10.6075,368
10.6095,289
10.6115,239
10.6136,227
10.6156,312
10.6176,452
10.6196,535
10.6213,486
10.6213,378
10.6213,281
10.6213,211
10.6213,164
10.6213,198
10.6213,307
10.6213,399
10.6372,364
10.6372,239
10.6372,122
10.6372,35
10.6372,0
10.6372,11
10.6487,127
10.6487,279
10.6532,352
10.6532,322
10.6532,287
10.6532,273
10.6532,264
10.6532,277
10.6532,372
10.6674,509
10.6674,583
10.6674,523
10.6674,408
10.676,307
10.676,240
10.6792,205
10.6792,261
10.6841,402
10.6841,527
10.6841,526
10.6901,432
10.6901,335
10.6926,265
10.6961,221
10.6961,242
10.6961,364
10.7008,506
10.7008,551
10.7008,473
10.7008,370
10.7092,287
10.7118,232
10.7118,223
10.7118,315
10.7118,465
10.7118,554
10.7118,506
10.7118,402
10.725,309
10.725,245
10.7296,213
10.7296,272
10.7296,416
10.7296,539
10.7365,535
10.7365,436
10.7408,335
10.7408,260
10.7408,213
10.7408,235
10.749,360
10.749,505
10.749,550
10.749,469
10.7568,362
10.7568,276
10.7568,220
10.7568,210
10.7568,305
10.7568,457
10.7568,546
10.7568,496
10.7728,390
10.7728,294
10.7728,228
10.7728,195
10.7728,255
10.7728,402
10.7728,527
10.7728,522
10.7887,421
10.7907,317
10.7907,242
10.7907,195
10.7907,219
10.7907,346
10.7907,494
10.7907,538
10.8047,454
10.8047,344
10.8047,257
10.8047,199
10.8137,190
10.8157,288
10.8177,444
10.8197,534
10.8208,482
10.8228,371
10.8248,273
10.8268,206
10.8288,173
10.8308,236
10.8328,385
10.8348,511
10.8366,503
10.8386,399
10.8406,292
10.8426,216
10.8446,168
10.8466,192
10.8492,321
10.8512,472
10.8538,514
10.8548,427
10.8581,314
10.8597,226
10.8614,167
10.863,159
10.8648,260
10.8648,419
10.8687,510
10.8687,455
10.8687,342
10.8687,244
10.8687,176
10.8796,143
10.8816,209
10.8837,362
10.8847,492
10.8867,482
10.8887,376
10.8907,268
10.8927,190
10.8947,142
10.8968,170
10.8988,304
10.9005,460
10.9025,503
10.9045,415
10.9065,302
10.9086,215
10.9106,157
10.9126,153
10.9163,261
10.9163,428
10.9183,523
10.9204,469
10.9224,357
10.9244,259
10.9264,193
10.9284,163
10.9322,235
10.9322,397
10.9322,531
10.9322,524
10.9322,418
10.9322,310
10.9322,232
10.9322,184
10.9479,216
10.9494,357
10.9494,516
10.9494,560
10.9494,471
10.9494,356
10.9494,264
10.9494,203
10.9636,199
10.9636,309
10.9636,478
10.9636,571
10.9636,514
10.9636,396
10.9636,291
10.9636,219
10.9797,186
10.9809,259
10.9829,422
10.985,555
10.987,543
10.989,430
10.991,315
10.993,232
10.995,182
10.997,215
10.999,361
11.001,522
11.003,564
11.005,471
11.0071,349
11.0091,252
11.0108,189
11.0128,184
11.0148,299
11.0168,474
11.0188,568
11.0209,506
11.0229,385
11.0249,275
11.0266,201
11.0286,168
11.0306,245
11.0327,415
11.0347,553
11.0367,539
11.0387,423
11.0407,303
11.0424,216
11.0444,163
11.0464,199
11.0495,350
11.0515,518
11.0535,560
11.0555,462
11.0575,335
11.0585,235
11.0605,168
11.0625,164
11.0645,284
11.0665,465
11.0685,561
11.0705,495
11.0725,367
11.0763,253
11.0763,175
11.0783,140
11.0803,222
11.0823,399
11.0843,541
11.0863,523
11.0901,399
11.0915,271
11.0942,177
11.0958,118
11.0974,155
11.099,311
11.1023,488
11.1023,532
11.106,429
11.108,297
11.1101,193
11.1121,124
11.1141,123
11.1161,254
11.1181,447
11.1201,550
11.1218,482
11.1218,348
11.1218,229
11.1218,147
11.1296,112
11.1316,202
11.1336,391
11.1356,543
11.1376,527
11.1376,399
11.1376,267
11.1376,171
11.1376,115
11.1376,158
11.1499,327
11.1499,513
11.1537,558
11.1537,450
11.1537,310
11.1537,200
11.1537,127
11.1537,129
11.1537,268
11.1537,471
11.1698,578
11.1698,507
11.1698,368
11.1698,241
11.1698,155
11.1796,120
11.1816,216
11.1836,415
11.1857,574
11.1857,557
11.1857,425
11.1857,288
11.1857,188
11.1857,129
11.1857,176
11.1857,356
11.2018,549
11.2018,595
11.2018,485
11.2018,341
11.2018,225
11.2018,150
11.2018,153
11.2018,297
11.2179,506
11.2193,614
11.2225,541
11.2236,397
11.2253,265
11.227,174
11.23,136
11.2319,233
11.2336,435
11.2353,592
11.237,572
11.2388,437
11.2422,297
11.2439,194
11.2457,134
11.2479,183
11.25,366
11.2523,561
11.254,605
11.2558,493
11.2576,349
11.2594,232
11.2626,157
11.2647,161
11.2662,309
11.2673,518
11.2691,626
11.2708,550
11.2741,403
11.2759,271
11.2793,181
11.2802,147
11.2813,249
11.2831,456
11.285,616
11.2883,596
11.2901,459
11.2922,316
11.2946,211
11.2971,150
11.2986,202
11.2997,389
11.3015,584
11.3033,627
11.305,512
11.3081,364
11.3105,244
11.3116,167
11.315,172
11.316,323
11.3179,537
11.3197,644
11.3215,564
11.3233,415
11.3263,282
11.3284,190
11.3299,156
11.3309,261
11.3343,471
11.3364,630
11.338,606
11.3391,465
11.3408,318
11.3441,209
11.3461,141
11.3479,186
11.3503,367
11.3514,554
11.3531,580
11.3565,441
11.3586,264
11.3597,114
11.3614,2
11.365,0
11.3658,113
11.368,301
11.3702,396
11.3713,310
11.3731,171
11.3749,55
11.3782,0
11.3796,12
11.3815,181
11.3832,460
11.385,668
11.3884,665
11.3903,532
11.3923,380
11.3946,255
11.3966,178
11.3982,221
11.3994,405
11.4014,599
11.4033,637
11.4056,517
11.4084,367
11.4104,246
11.4119,169
11.4129,179
11.4166,340
11.4176,560
11.4193,666
11.4211,586
11.4242,434
11.4258,296
11.4275,202
11.4302,168
11.4307,278
11.434,494
11.4357,656
11.4373,628
11.439,485
11.4424,337
11.4442,227
11.4459,165
11.4475,223
11.4493,419
11.4509,618
11.4527,656
11.456,533
11.4577,379
11.4595,253
11.4612,172
11.4635,179
11.4645,338
11.4678,557
11.4696,660
11.4709,574
11.4727,421
11.4745,282
11.4781,187
11.4798,154
11.4816,266
11.4834,482
11.4851,642
11.4883,611
11.4901,465
11.4919,315
11.4936,207
11.4954,145
11.4972,205
11.499,401
11.5008,599
11.5039,634
11.5057,508
11.5074,354
11.5096,228
11.5106,147
11.5142,156
11.5159,316
11.5177,535
11.5204,637
11.5221,548
11.5239,393
11.5258,253
11.5274,159
11.5292,125
11.5308,240
11.5343,459
11.5361,618
11.5377,584
11.5394,437
11.5412,286
11.5429,175
11.5464,114
11.5477,176
11.5494,375
11.5511,575
11.5528,608
11.5562,479
11.5572,322
11.5589,197
11.5623,116
11.5642,125
11.5658,288
11.5676,510
11.5693,609
11.5711,520
11.5729,364
11.5763,224
11.578,129
11.5796,97
11.5813,214
11.5828,434
11.5845,593
11.588,557
11.5897,408
11.5914,258
11.5944,149
11.5962,89
11.5979,154
11.6002,353
11.6024,554
11.6034,584
11.6052,456
11.6068,298
11.6086,175
11.6119,95
11.6136,108
11.6163,273
11.6185,495
11.6195,594
11.6212,503
11.6241,347
11.6255,211
11.6272,118
11.63,89
11.6324,209
11.6338,430
11.6358,589
11.6373,554
11.64,408
11.6412,261
11.6429,156
11.6463,99
11.6477,168
11.6494,373
11.6509,575
11.6543,606
11.656,482
11.6575,328
11.6592,208
11.6623,132
11.6636,150
11.6653,319
11.6669,543
11.6702,643
11.6718,554
11.6735,401
11.6752,265
11.6782,174
11.6798,147
11.6816,270
11.6832,493
11.6849,649
11.6867,611
11.69,464
11.6917,315
11.6937,207
11.6947,149
11.6977,218
11.6994,422
11.7012,619
11.7028,647
11.706,518
11.7077,363
11.7093,239
11.7111,160
11.7128,176
11.7146,345
11.7179,565
11.7197,659
11.7215,566
11.7233,409
11.7266,270
11.7285,177
11.7295,149
11.7312,272
11.7329,495
11.736,650
11.7379,609
11.7398,460
11.7421,310
11.7432,202
11.7468,144
11.7483,215
11.7505,420
11.7511,617
11.7545,641
11.7561,510
11.7579,354
11.7596,230
11.7613,152
11.763,170
11.7648,341
11.7682,563
11.7699,656
11.7717,559
11.7735,403
11.7749,264
11.7782,171
11.7802,145
11.7813,271
11.7831,495
11.7848,647
11.7882,603
11.7903,451
11.7922,300
11.7933,191
11.795,133
11.7983,206
11.7997,415
11.8014,611
11.8031,634
11.8064,501
11.8079,344
11.8097,220
11.8113,142
11.813,162
11.8149,337
11.8167,560
11.8202,653
11.8222,556
11.8232,397
11.825,258
11.8283,165
11.83,140
11.8319,270
11.8338,497
11.8355,649
11.8388,604
11.8407,451
11.8424,301
11.8436,193
11.8454,136
11.8478,212
11.8505,423
11.8527,622
11.8542,642
11.8554,508
11.8589,351
11.8608,226
11.8624,147
11.8635,169
11.8653,347
11.8672,570
11.8709,660
11.8724,560
11.8736,400
11.8754,260
11.8785,166
11.8805,142
11.8816,273
11.8834,500
11.8866,650
11.8883,602
11.8906,449
11.8918,297
11.8944,188
11.8957,131
11.899,209
11.9006,421
11.9022,618
11.9034,636
11.9053,501
11.9086,342
11.9105,218
11.9116,140
11.9144,165
11.9157,345
11.9176,569
11.9195,656
11.9215,554
11.9234,393
11.9253,252
11.9294,157
11.9294,134
11.9329,266
11.9345,495
11.9362,644
11.9378,593
11.9406,438
11.9424,285
11.9443,175
11.9464,117
11.9486,196
11.9498,409
11.9522,604
11.9534,616
11.9566,476
11.9586,313
11.9602,187
11.9627,108
11.9648,134
11.9665,315
11.9682,541
11.9694,627
11.9713,522
11.9751,359
11.9766,219
11.9778,127
11.9797,108
11.9815,248
11.9833,484
11.9851,636
11.9885,584
11.99,428
11.9925,274
11.9939,165
11.9961,109
11.9972,194
11.9991,413
12.0024,614
12.0047,628
12.0061,490
12.0072,328
12.0106,204
12.012,126
12.014,155
12.0159,343
12.0177,572
12.0194,656
12.0212,549
12.023,383
12.0265,240
12.028,144
12.0299,125
12.0318,266
12.0335,502
12.0352,653
12.0369,597
12.0407,438
12.0418,283
12.0436,172
12.0455,116
12.0482,203
12.05,425
12.0518,625
12.0535,637
12.0553,494
12.0585,330
12.06,203
12.0619,126
12.064,156
12.0658,343
12.0675,568
12.0692,642
12.0726,522
12.074,345
12.0759,189
12.0777,75
12.0796,34
12.0814,150
12.0832,354
12.0865,474
12.0886,389
12.0897,208
12.0914,40
12.0931,0
12.0965,0
12.0982,29
12.0996,223
12.1014,441
12.1031,504
12.1064,425
12.1079,314
12.1097,218
12.1114,149
12.1145,177
12.1159,355
12.1182,563
12.1193,614
12.121,465
12.1248,261
12.1265,94
12.1283,0
12.1305,0
12.1315,139
12.1333,396
12.1368,565
12.1379,507
12.1398,338
12.1415,176
12.1433,59
12.145,6
12.1482,118
12.1497,377
12.1518,608
12.1543,620
12.1557,460
12.1586,271
12.1597,127
12.1613,38
12.1651,79
12.1662,302
12.1689,570
12.1707,665
12.1724,542
12.1739,352
12.1755,187
12.1777,76
12.1803,59
12.1824,230
12.1839,505
12.1866,675
12.1888,609
12.1903,424
12.1915,243
12.1934,113
12.1956,50
12.1983,158
12.1998,419
12.2016,647
12.2034,653
12.2056,487
12.2084,294
12.2099,143
12.2118,50
12.2137,91
12.2155,313
12.2176,579
12.22,669
12.2222,537
12.2235,340
12.2246,171
12.2282,57
12.23,39
12.2319,214
12.2343,493
12.2353,663
12.2371,594
12.2389,409
12.2427,227
12.2432,98
12.2466,39
12.2473,152
12.2501,419
12.2517,652
12.253,660
12.2564,497
12.2575,309
12.2605,164
12.2622,75
12.2647,123
12.2666,353
12.2684,620
12.2697,688
12.2725,577
12.2742,393
12.2763,231
12.2777,124
12.2789,112
12.281,288
12.2843,565
12.2857,689
12.2876,640
12.2886,471
12.2924,299
12.2938,174
12.2953,116
12.298,228
12.301,488
12.3021,689
12.3035,681
12.3053,537
12.3069,361
12.3103,219
12.3118,132
12.3146,176
12.3162,399
12.3176,655
12.3195,689
12.322,590
12.3243,414
12.326,257
12.3281,150
12.3295,137
12.3307,309
12.3342,576
12.3363,689
12.3374,639
12.3391,472
12.3408,303
12.3442,182
12.3472,126
12.3482,239
12.3501,495
12.3519,688
12.353,680
12.3564,537
12.3579,369
12.3597,232
12.3626,149
12.3637,197
12.3662,416
12.368,664
12.3695,688
12.3713,598
12.3745,434
12.3764,289
12.3786,193
12.3802,187
12.3815,362
12.3845,623
12.3861,691
12.3879,674
12.3895,557
12.3924,429
12.3941,329
12.3955,279
12.3973,376
12.4003,589
12.402,691
12.4047,686
12.4058,574
12.408,430
12.4119,308
12.4126,229
12.4144,264
12.4161,450
12.4182,657
12.4192,687
12.4211,581
12.4229,421
12.4264,284
12.4281,192
12.4299,182
12.4319,330
12.4335,557
12.4352,681
12.4368,608
12.4368,447
12.4368,296
12.4368,190
12.4451,143
12.4483,242
12.4501,463
12.4523,642
12.4547,630
12.4558,484
12.4576,324
12.4599,204
12.461,132
12.4646,177
12.4663,372
12.4684,588
12.4695,646
12.4714,527
12.4732,366
12.4751,230
12.4787,140
12.4803,135
12.4814,289
12.4832,519
12.4865,644
12.4883,569
12.49,409
12.4919,261
12.4938,157
12.4965,111
12.4985,214
12.4994,436
12.5024,616
12.5039,603
12.5068,456
12.5084,298
12.51,179
12.5128,109
12.5132,158
12.515,356
12.5168,573
12.5205,629
12.5223,509
12.524,346
12.5257,211
12.5278,123
12.5295,120
12.5322,276
12.534,507
12.5363,632
12.5373,556
12.5391,396
12.5409,247
12.5443,145
12.5456,102
12.5473,208
12.5491,433
12.5525,614
12.5542,598
12.5556,450
12.5578,292
12.5588,174
12.5624,103
12.5643,154
12.5666,355
12.5685,573
12.5702,628
12.5712,507
12.5731,344
12.5763,209
12.5784,121
12.5795,119
12.5817,278
12.5828,512
12.5863,636
12.5878,557
12.59,397
12.5925,249
12.5944,146
12.5957,104
12.5982,214
12.5998,441
12.6017,621
12.6039,604
12.6067,455
12.6082,296
12.6108,178
12.6123,107
12.6145,159
12.6156,360
12.6174,577
12.6193,629
12.6226,505
12.624,342
12.6262,208
12.6273,120
12.6305,121
12.6322,282
12.6341,515
12.6363,636
12.6374,556
12.6396,394
12.6425,245
12.6439,141
12.6462,98
12.6475,208
12.6502,435
12.6526,613
12.6538,593
12.6556,443
12.6581,283
12.6592,164
12.6625,95
12.6644,150
12.6657,353
12.6682,570
12.67,619
12.6728,494
12.6744,327
12.6762,192
12.6779,103
12.6803,102
12.6819,263
12.6848,495
12.6865,613
12.6881,530
12.6899,368
12.6922,219
12.6943,116
12.6968,76
12.6985,189
12.7002,418
12.7024,596
12.7035,575
12.7054,427
12.7074,271
12.7107,156
12.7122,89
12.7141,148
12.7164,353
12.718,570
12.7206,616
12.7226,491
12.7243,327
12.7258,195
12.7284,109
12.7305,114
12.7322,281
12.7338,516
12.7366,636
12.7385,553
12.7404,393
12.7422,247
12.7439,145
12.7467,107
12.7486,222
12.7503,452
12.7526,626
12.7532,601
12.7568,450
12.7587,290
12.7603,174
12.7614,107
12.7645,166
12.7666,372
12.7681,586
12.7694,630
12.7728,503
12.7743,340
12.7755,207
12.7777,120
12.7806,126
12.7825,293
12.7837,526
12.7855,641
12.7874,555
12.7894,391
12.7913,240
12.7931,133
12.7962,88
12.7981,195
12.7996,413
12.8024,572
12.8043,526
12.8056,351
12.808,168
12.809,22
12.8125,0
12.8146,4
12.816,161
12.817,343
12.8188,377
12.8225,255
12.8241,113
12.8253,10
12.8271,0
12.8306,55
12.8325,282
12.8337,562
12.8356,688
12.838,616
12.8408,452
12.8428,291
12.8444,174
12.8454,123
12.8474,229
12.8508,451
12.8526,618
12.8548,587
12.8563,436
12.8575,280
12.8593,167
12.8627,103
12.8646,170
12.8665,381
12.8682,594
12.8694,634
12.8729,505
12.8747,341
12.8762,209
12.8774,123
12.88,132
12.8834,301
12.8848,535
12.8864,645
12.8876,555
12.8896,392
12.8915,245
12.8934,144
12.897,109
12.8986,231
12.8997,461
12.9017,632
12.9036,600
12.9055,447
12.9074,288
12.9109,172
12.9109,106
12.9147,172
12.9163,381
12.9175,594
12.9194,630
12.9212,499
12.9249,335
12.9266,204
12.9278,118
12.9305,129
12.9317,299
12.9337,530
12.9356,637
12.9375,544
12.9399,380
12.9423,233
12.9448,133
12.9464,100
12.9476,223
12.9494,454
12.9514,622
12.9556,586
12.9556,432
12.9582,274
12.9598,158
12.9614,94
12.9641,161
12.9668,371
12.9684,581
12.9702,615
12.9714,480
12.9751,313
12.9761,182
12.9791,98
12.9797,111
12.9824,285
12.9835,519
12.9856,626
12.9883,531
12.9898,367
12.9916,220
12.9933,119
12.9946,86
12.9979,210
12.9995,441
13.0017,606
13.0027,568
13.0073,411
13.0083,253
13.0104,138
13.0127,73
13.0145,141
13.0164,352
13.0179,561
13.0197,592
13.0214,458
13.023,292
13.0247,161
13.0283,76
13.0294,91
13.0311,265
13.0329,497
13.0363,599
13.0381,501
13.04,336
13.0418,192
13.044,92
13.0468,61
13.0485,188
13.0495,420
13.0513,584
13.0531,543
13.0564,385
13.0582,227
13.0604,111
13.062,49
13.0635,120
13.0666,332
13.0676,544
13.0694,574
13.0712,438
13.073,273
13.0764,143
13.0788,60
13.0799,77
13.0815,254
13.0832,488
13.0849,591
13.0883,497
13.0898,335
13.0915,194
13.0937,99
13.0964,74
13.0979,208
13.0997,446
13.1015,613
13.1035,574
13.1062,421
13.108,268
13.1098,156
13.1132,96
13.1143,173
13.1159,390
13.1178,600
13.1195,628
13.1212,495
13.1243,333
13.1249,205
13.1289,124
13.1302,144
13.1316,324
13.1345,558
13.1363,656
13.1379,558
13.1404,394
13.1423,249
13.1434,151
13.1458,124
13.1485,255
13.1502,489
13.1513,649
13.1533,603
13.1565,447
13.1584,290
13.1595,176
13.1617,116
13.1645,193
13.1659,409
13.1682,616
13.1694,639
13.1711,502
13.173,338
13.1765,208
13.1784,125
13.1799,145
13.1809,325
13.1843,557
13.1861,653
13.1875,552
13.1893,386
13.1912,241
13.1929,142
13.1963,116
13.1983,250
13.1994,485
13.2011,645
13.2042,598
13.2066,440
13.2083,281
13.2095,167
13.2112,107
13.2145,186
13.2164,405
13.2176,613
13.2195,633
13.2214,493
13.2233,326
13.2251,194
13.2284,110
13.2306,131
13.2323,315
13.2335,550
13.2359,642
13.2387,535
13.2406,360
13.2421,202
13.2434,87
13.2452,44
13.2488,169
13.2507,405
13.2517,564
13.2542,503
13.2552,327
13.2588,162
13.2602,46
13.2613,0
13.2648,98
13.2673,352
13.2683,591
13.2704,623
13.2728,474
13.2743,290
13.2754,145
13.2772,52
13.2795,76
13.2824,282
13.2844,544
13.2859,650
13.2882,536
13.2904,351
13.2915,189
13.2947,77
13.2964,52
13.2981,209
13.3005,477
13.3016,656
13.3034,602
13.3058,424
13.3082,245
13.31,116
13.3118,50
13.3134,144
13.3153,396
13.317,629
13.3204,651
13.322,494
13.3237,305
13.3268,156
13.3281,63
13.3293,95
13.3322,309
13.3348,577
13.3358,682
13.3384,567
13.3399,379
13.341,213
13.3453,101
13.3453,77
13.3474,239
13.3516,512
13.352,685
13.3541,631
13.3548,454
13.3582,275
13.3599,145
13.3616,81
13.3639,180
13.3649,436
13.3682,672
13.3699,679
13.3716,531
13.3733,350
13.3749,203
13.3784,111
13.3811,145
13.3823,363
13.3835,628
13.3861,689
13.3879,595
13.3896,413
13.3913,247
13.3929,133
13.3959,108
13.3974,269
13.3987,541
13.4022,689
13.4038,641
13.4055,468
13.4071,290
13.4089,161
13.4122,95
13.4148,197
13.4158,455
13.4173,683
13.4195,682
13.4222,537
13.4238,356
13.4255,209
13.4283,117
13.4289,152
13.4324,371
13.4341,638
13.4357,690
13.4374,597
13.4391,417
13.4425,254
13.4442,143
13.4456,123
13.4473,291
13.4488,567
13.4522,690
13.454,652
13.4555,486
13.4573,312
13.459,183
13.4608,117
13.4644,217
13.4657,475
13.4675,688
13.4692,683
13.471,542
13.4727,365
13.4761,219
13.4784,129
13.4794,169
13.4823,392
13.4828,657
13.4858,690
13.4875,625
13.4892,476
13.4909,342
13.4944,252
13.4964,246
13.498,408
13.4992,655
13.5014,691
13.5041,679
13.5057,555
13.5074,409
13.5089,285
13.5121,210
13.5144,274
13.5157,468
13.5173,634
13.5191,606
13.5208,425
13.524,226
13.5258,70
13.528,0
13.5308,10
13.5326,172
13.5333,389
13.5351,473
13.5382,376
13.5402,235
13.5413,136
13.5431,103
13.5465,149
13.548,342
13.549,600
13.5508,690
13.5543,652
13.5561,498
13.5584,337
13.5598,214
13.5614,148
13.5644,230
13.5661,444
13.5678,634
13.5703,637
13.572,494
13.5731,333
13.5749,210
13.5792,135
13.5801,172
13.5822,365
13.5833,590
13.585,665
13.5884,553
13.5898,389
13.5915,247
13.5933,153
13.5968,138
13.5985,283
13.6002,516
13.602,655
13.6043,592
13.6054,432
13.6073,279
13.6105,171
13.6118,120
13.6133,212
13.6156,434
13.6183,625
13.6201,624
13.622,480
13.6239,317
13.6261,193
13.6286,116
13.6309,153
13.6327,344
13.6337,567
13.6347,639
13.6383,524
13.6401,359
13.6426,219
13.6444,127
13.6467,114
13.6472,263
13.649,497
13.6508,635
13.6527,568
13.6564,408
13.6581,255
13.6592,147
13.6617,95
13.6644,191
13.6655,413
13.6676,604
13.6687,603
13.6724,458
13.6744,297
13.6755,175
13.6785,99
13.6805,138
13.6815,331
13.6832,555
13.6851,625
13.6885,510
13.6903,344
13.6914,204
13.6932,112
13.6962,102
13.6982,253
13.6995,487
13.702,625
13.7037,556
13.7055,394
13.7075,241
13.7104,132
13.7118,81
13.7149,177
13.7164,400
13.7174,589
13.7193,584
13.721,437
13.7243,276
13.7258,153
13.7275,78
13.7309,120
13.7327,313
13.7345,536
13.7364,602
13.7385,485
13.74,318
13.7425,181
13.744,89
13.7459,79
13.7487,231
13.7497,464
13.7519,599
13.753,528
13.7549,366
13.7567,214
13.7604,107
13.7622,58
13.7646,157
13.7662,381
13.7684,570
13.7695,563
13.7714,416
13.7732,254
13.7752,132
13.7784,58
13.7799,101
13.7817,297
13.7835,521
13.7853,586
13.7875,468
13.7905,304
13.7919,168
13.7943,78
13.7957,71
13.7984,226
13.8002,462
13.8019,597
13.8038,528
13.8059,371
13.807,223
13.8104,120
13.8118,76
13.8145,181
13.8163,409
13.818,600
13.8199,595
13.8218,450
13.8236,293
13.8262,176
13.8286,107
13.8304,155
13.8324,357
13.8344,581
13.8355,646
13.8373,527
13.839,365
13.8425,229
13.8444,139
13.8454,135
13.8477,291
13.8491,525
13.8522,656
13.854,584
13.8562,424
13.8577,274
13.8604,169
13.8618,124
13.8646,228
13.8656,455
13.8683,639
13.8697,628
13.8715,480
13.8732,318
13.875,197
13.8787,125
13.8808,172
13.8821,370
13.8832,591
13.885,652
13.8867,532
13.8902,369
13.8925,232
13.8936,142
13.8967,138
13.8984,295
13.9003,530
13.9013,657
13.9032,582
13.905,421
13.9083,271
13.9098,166
13.9121,122
13.9137,227
13.9164,452
13.9181,635
13.9195,620
13.9214,472
13.9233,312
13.9255,193
13.9284,122
13.9299,172
13.9317,373
13.9337,591
13.9347,649
13.9383,527
13.9402,364
13.9417,227
13.9445,137
13.9459,135
13.9483,294
13.9496,530
13.9513,656
13.953,579
13.9555,417
13.958,268
13.9599,163
13.9617,119
13.9639,227
13.9662,454
13.9677,637
13.9694,622
13.9713,473
13.9732,312
13.9764,193
13.9783,122
13.9797,173
13.9822,374
13.9832,593
13.985,648
13.9867,526
13.9903,363
13.9918,227
13.9939,138
13.9968,138
13.9982,298
14.0004,532
14.0014,656
14.0032,578
14.0049,416
14.0082,267
14.01,163
14.0122,120
14.0136,229
14.0162,456
14.0179,634
14.0198,615
14.0216,465
14.0238,304
14.0263,185
14.0283,115
14.0303,169
14.0317,372
14.0343,591
14.036,644
14.0385,518
14.0399,353
14.0417,218
14.044,129
14.0469,130
14.0487,294
14.0497,531
14.0515,653
14.0534,571
14.056,405
14.0585,252
14.0606,144
14.0616,100
14.0637,213
14.0662,445
14.0683,626
14.0697,599
14.0707,435
14.0743,260
14.076,128
14.0788,50
14.0801,107
14.082,326
14.0841,563
14.0853,620
14.0875,486
14.0903,307
14.0918,162
14.0936,68
14.096,73
14.0975,254
14.1001,514
14.1024,650
14.1038,564
14.1062,390
14.1077,228
14.1096,114
14.1114,70
14.1146,193
14.1166,443
14.118,637
14.1197,613
14.1221,446
14.1232,265
14.125,130
14.1284,49
14.1306,108
14.1326,334
14.1339,576
14.136,628
14.1374,484
14.1402,295
14.1416,141
14.1433,39
14.1462,47
14.1483,241
14.1506,516
14.1519,659
14.1537,568
14.1561,381
14.1571,207
14.1589,84
14.1616,37
14.1645,172
14.1663,442
14.1679,649
14.1697,620
14.1713,439
14.1747,245
14.1747,98
14.1787,14
14.1797,83
14.1815,327
14.1832,590
14.1849,651
14.1867,506
14.1903,312
14.192,156
14.1938,55
14.1955,68
14.1977,277
14.2004,567
14.2021,689
14.2037,625
14.2056,456
14.2072,294
14.2104,183
14.2121,147
14.2143,294
14.2153,573
14.2173,690
14.22,684
14.2217,548
14.2234,374
14.225,227
14.2284,136
14.2298,198
14.2321,436
14.2338,683
14.2355,689
14.2377,608
14.2389,467
14.2422,360
14.2443,321
14.2452,404
14.2483,663
14.2497,692
14.2514,692
14.2537,692
14.2563,690
14.258,687
14.2597,659
14.262,625
14.2638,690
14.2648,692
14.2666,691
14.2703,691
14.2717,689
14.2727,666
14.2762,593
14.2788,517
14.2804,555
14.2823,690
14.2844,692
14.2856,691
14.2883,685
14.2901,601
14.2918,491
14.2934,392
14.2952,382
14.2969,546
14.2987,691
14.3021,691
14.3037,678
14.3054,557
14.3071,423
14.3088,311
14.3121,263
14.3142,384
14.3154,622
14.3171,691
14.3201,681
14.3215,551
14.3232,393
14.3249,262
14.3283,182
14.3302,242
14.3318,459
14.3341,675
14.3349,684
14.3367,546
14.3385,364
14.342,212
14.3437,111
14.3464,115
14.3479,297
14.3501,547
14.3522,661
14.3538,558
14.3551,373
14.3582,206
14.36,89
14.3623,49
14.3643,180
14.3661,431
14.3683,615
14.3695,577
14.3715,406
14.3742,230
14.3761,99
14.3788,24
14.381,94
14.3824,321
14.3842,553
14.3856,592
14.3878,446
14.3888,263
14.3924,116
14.3938,20
14.3956,31
14.3971,219
14.4,474
14.4013,591
14.403,488
14.4064,306
14.4079,144
14.4097,29
14.4119,0
14.4141,128
14.4163,377
14.4174,561
14.4202,525
14.4225,360
14.4246,194
14.426,75
14.4281,14
14.4296,97
14.4316,328
14.4335,559
14.4363,600
14.4381,465
14.4395,294
14.4412,156
14.4445,64
14.4457,74
14.4484,248
14.4499,482
14.4515,585
14.4531,485
14.4548,313
14.458,164
14.4598,60
14.4618,26
14.4628,151
14.4661,384
14.4678,551
14.4695,510
14.4713,352
14.473,192
14.4764,75
14.4786,8
14.48,79
14.4813,289
14.4831,501
14.4863,532
14.4874,396
14.4891,232
14.4923,104
14.494,20
14.4965,36
14.497,213
14.5002,447
14.5017,551
14.5034,456
14.505,293
14.5081,153
14.5103,55
14.5114,27
14.5145,156
14.5158,391
14.5174,557
14.5192,519
14.5209,366
14.5241,214
14.5264,103
14.5274,43
14.5293,118
14.5311,331
14.5345,543
14.5364,572
14.5382,439
14.5401,278
14.5423,151
14.5449,69
14.5467,88
14.5467,265
14.5503,497
14.5517,596
14.5535,498
14.5552,333
14.5585,190
14.5597,91
14.5615,63
14.5637,192
14.5664,423
14.5681,584
14.5704,541
14.5716,385
14.5739,229
14.5767,115
14.5788,55
14.5798,129
14.5816,343
14.5834,551
14.5869,576
14.5894,439
14.5904,276
14.5919,149
14.5938,66
14.5955,85
14.5974,263
14.601,495
14.6025,592
14.6043,492
14.6066,327
14.6078,185
14.6096,88
14.6114,62
14.615,194
14.6165,429
14.6183,589
14.6203,544
14.6226,388
14.6236,231
14.6255,118
14.6274,58
14.6291,135
14.6327,350
14.6346,558
14.6364,581
14.6388,444
14.6404,281
14.6416,153
14.6434,72
14.6451,93
14.6471,275
14.651,507
14.6527,602
14.6545,501
14.6556,337
14.6581,194
14.6594,97
14.6619,72
14.6644,207
14.6665,442
14.6683,600
14.6695,553
14.6724,396
14.6736,241
14.6755,128
14.6774,69
14.6794,148
14.6814,366
14.6849,572
14.6863,593
14.6885,456
14.6903,291
14.6915,164
14.6938,82
14.6966,106
14.6985,288
14.6997,520
14.7016,613
14.7038,510
14.7067,345
14.7087,203
14.7103,106
14.7116,83
14.7148,219
14.7165,455
14.7184,611
14.7196,561
14.7214,404
14.7233,248
14.7268,136
14.7284,78
14.7295,160
14.7314,379
14.7345,583
14.7361,600
14.7374,461
14.7409,297
14.7424,170
14.7448,89
14.7459,115
14.7482,299
14.7499,530
14.7531,620
14.7548,515
14.7563,350
14.7576,207
14.7595,110
14.7626,88
14.7648,226
14.7663,462
14.7675,616
14.7692,564
14.7731,405
14.7747,249
14.7762,137
14.7774,80
14.7796,164
14.7825,384
14.7837,587
14.7855,602
14.7888,461
14.7906,296
14.7922,168
14.7934,86
14.7951,111
14.7987,293
14.8005,522
14.8016,607
14.8035,499
14.8071,332
14.8087,190
14.8107,94
14.8127,72
14.8143,213
14.8155,448
14.8188,600
14.8206,547
14.8224,389
14.8236,236
14.8255,126
14.8274,71
14.8304,158
14.8314,379
14.8332,582
14.8366,596
14.8384,456
14.8396,293
14.8415,168
14.8435,90
14.8463,121
14.8485,310
14.8502,542
14.8524,629
14.8536,522
14.8555,359
14.8574,217
14.8608,122
14.8632,102
14.8647,245
14.8662,481
14.8674,631
14.8694,574
14.8729,415
14.8747,259
14.8764,148
14.8776,93
14.8804,181
14.8816,402
14.8835,602
14.8868,612
14.8888,469
14.8905,306
14.8925,180
14.8941,101
14.8966,132
14.8988,320
14.9003,550
14.9015,632
14.9035,523
14.9054,359
14.9073,217
14.9096,119
14.9118,97
14.9147,232
14.9164,458
14.9179,595
14.9205,522
14.9229,344
14.9247,169
14.9266,30
14.9278,0
14.9308,29
14.9325,202
14.9342,370
14.9358,360
14.9384,214
14.9409,65
14.9425,0
14.9442,0
14.9466,26
14.9486,242
14.9503,518
14.9518,641
14.9553,560
14.9564,409
14.9583,267
14.9606,165
14.9619,136
14.9648,269
14.9671,493
14.9683,632
14.9701,569
14.9721,408
14.9745,257
14.9764,150
14.9776,100
14.9806,194
14.9823,419
14.9838,616
14.9864,621
14.9883,478
14.9905,315
14.9924,191
14.9936,114
14.9955,149
14.9977,340
15.0008,567
15.002,644
15.0042,532
15.0054,367
15.0092,227
15.0102,133
15.012,117
15.0141,264
15.016,499
15.0182,642
15.0193,578
15.0227,418
15.0245,265
15.0259,156
15.0277,105
15.0296,198
15.0314,421
15.0331,615
15.0366,617
15.0385,472
15.0396,310
15.0413,185
15.043,108
15.0466,145
15.0477,338
15.0499,564
15.051,638
15.0547,524
15.0558,360
15.0579,219
15.0601,125
15.0621,111
15.0641,259
15.066,494
15.0679,634
15.0698,570
15.0715,409
15.0748,255
15.0754,147
15.0784,95
15.0802,190
15.0813,413
15.083,606
15.0868,606
15.0879,460
15.0897,298
15.0914,174
15.0933,97
15.097,136
15.0981,328
15.1,554
15.1023,626
15.1034,509
15.1056,344
15.1082,204
15.1102,110
15.112,98
15.1143,247
15.1155,482
15.1173,620
15.1192,553
15.1211,391
15.1229,237
15.1249,129
15.1282,78
15.1295,174
15.1314,398
15.1331,589
15.1365,585
15.138,439
15.1399,276
15.141,152
15.1443,76
15.1464,117
15.1475,310
15.1494,535
15.1511,604
15.1545,487
15.1562,319
15.1585,181
15.1596,87
15.1613,77
15.1631,228
15.1664,463
15.1679,600
15.1702,531
15.1713,368
15.1731,215
15.1764,107
15.1779,59
15.1797,158
15.1814,383
15.1831,574
15.1866,569
15.1877,421
15.1895,260
15.1913,139
15.1948,65
15.1969,110
15.198,308
15.1999,536
15.2017,604
15.2042,488
15.2053,323
15.2084,188
15.2102,98
15.2113,93
15.2129,250
15.2164,489
15.2178,628
15.2195,560
15.2213,401
15.2247,252
15.2269,148
15.2279,104
15.2302,209
15.2313,438
15.233,628
15.2364,623
15.2375,479
15.2394,318
15.2412,198
15.2446,126
15.2468,172
15.2479,372
15.2497,596
15.2517,661
15.2534,542
15.2553,378
15.257,240
15.2605,149
15.2623,143
15.2642,299
15.2653,534
15.2684,666
15.2702,594
15.2716,432
15.2733,279
15.275,173
15.2783,127
15.2803,230
15.2816,456
15.284,642
15.2857,632
15.2874,484
15.289,324
15.2923,202
15.294,129
15.296,176
15.2978,376
15.2996,597
15.3013,657
15.3031,537
15.3065,372
15.3084,233
15.3095,142
15.3112,137
15.313,294
15.3149,531
15.3182,661
15.32,586
15.3219,424
15.3238,272
15.3255,166
15.3277,121
15.3308,227
15.3324,455
15.3335,641
15.3352,630
15.3369,482
15.3407,321
15.3423,200
15.3434,127
15.3464,177
15.3482,379
15.35,600
15.3519,658
15.3541,537
15.3552,372
15.3586,234
15.36,144
15.3617,141
15.3646,301
15.366,537
15.3687,665
15.3697,590
15.3714,428
15.3734,277
15.3752,171
15.3776,127
15.3807,236
15.3822,465
15.3834,648
15.3853,633
15.3889,484
15.3905,322
15.3917,202
15.3936,131
15.3956,182
15.3987,385
15.4003,605
15.4016,661
15.4034,539
15.4054,375
15.4089,237
15.4095,147
15.4122,146
15.4147,307
15.4162,543
15.4177,669
15.4208,590
15.4223,427
15.4235,275
15.4254,171
15.4279,128
15.4295,239
15.4328,469
15.434,651
15.4364,633
15.4376,484
15.4395,323
15.4429,202
15.4447,131
15.4467,184
15.4487,388
15.4503,607
15.4515,660
15.4534,535
15.4568,370
15.4585,233
15.4602,143
15.4619,143
15.4637,306
15.4657,542
15.4676,665
15.4692,584
15.4709,422
15.4743,271
15.4766,165
15.4778,124
15.4799,236
15.4815,466
15.4834,646
15.4853,626
15.4872,474
15.4908,312
15.4924,192
15.4936,121
15.4954,176
15.4972,382
15.499,601
15.5028,652
15.5045,524
15.5055,357
15.5068,217
15.5104,125
15.5114,124
15.5131,286
15.515,520
15.5185,641
15.52,557
15.5221,393
15.5238,243
15.5261,139
15.5297,98
15.5303,213
15.5316,445
15.5335,625
15.5357,604
15.5386,454
15.5403,294
15.5415,177
15.5435,109
15.5454,169
15.5472,377
15.5491,597
15.5527,647
15.5543,520
15.5555,355
15.5588,219
15.5602,132
15.5625,137
15.5646,306
15.5658,545
15.5679,666
15.5708,584
15.5726,421
15.5746,271
15.5757,168
15.5777,129
15.5805,245
15.5825,478
15.5842,656
15.5857,631
15.5884,478
15.5906,318
15.5918,198
15.5936,129
15.5955,188
15.5987,396
15.6,613
15.6016,659
15.6035,531
15.6061,365
15.6087,229
15.61,140
15.6118,145
15.6139,313
15.6167,550
15.6181,667
15.6202,581
15.6222,416
15.6234,264
15.6253,155
15.6286,110
15.6309,219
15.6326,441
15.6337,603
15.6356,558
15.6374,382
15.6393,194
15.6429,44
15.6447,0
15.6463,13
15.6486,175
15.6498,364
15.6516,399
15.6535,274
15.6555,129
15.6579,21
15.6606,0
15.6627,55
15.6649,286
15.6664,573
15.6676,688
15.6694,630
15.6713,472
15.6731,315
15.6748,197
15.6782,145
15.6805,252
15.6826,476
15.6842,644
15.6854,612
15.6882,459
15.6894,300
15.6912,185
15.6948,121
15.6967,187
15.6983,400
15.6994,616
15.7014,658
15.7042,528
15.7059,363
15.707,227
15.7104,140
15.7119,149
15.7142,321
15.7158,557
15.7175,668
15.7199,578
15.7215,413
15.7234,264
15.7253,161
15.7287,126
15.7305,247
15.7317,482
15.7335,654
15.7362,623
15.7373,468
15.739,308
15.7423,190
15.7438,123
15.7455,188
15.7486,399
15.7503,613
15.7522,651
15.7533,519
15.7551,354
15.7584,219
15.7599,132
15.7618,143
15.7644,314
15.7661,550
15.7672,658
15.7689,566
15.7722,400
15.7744,251
15.7755,149
15.7786,114
15.7806,238
15.7817,471
15.7837,641
15.7855,605
15.7872,449
15.7889,289
15.7926,171
15.7937,105
15.7954,172
15.7971,384
15.7989,597
15.8023,633
15.8038,500
15.8055,334
15.8087,201
15.8105,115
15.8116,127
15.8132,301
15.815,535
15.8183,641
15.8205,547
15.8216,382
15.8233,233
15.825,131
15.8284,97
15.8304,221
15.8315,454
15.8332,621
15.8349,583
15.8388,426
15.84,266
15.8418,149
15.8435,85
15.845,154
15.8484,366
15.8498,578
15.8517,610
15.8535,473
15.8553,305
15.8571,173
15.8605,87
15.8623,100
15.8643,276
15.8654,509
15.8671,613
15.869,516
15.8724,350
15.8738,202
15.8755,101
15.8773,69
15.879,196
15.8823,429
15.8838,596
15.8855,555
15.8872,398
15.8906,240
15.8926,124
15.8937,59
15.8954,130
15.8971,344
15.899,556
15.9023,588
15.9037,453
15.9054,286
15.9077,156
15.9102,73
15.9122,92
15.9142,272
15.9159,509
15.9177,614
15.9194,518
15.9212,355
15.923,210
15.9264,112
15.9282,85
15.9297,217
15.9315,455
15.9332,623
15.9365,585
15.9384,431
15.9404,275
15.9415,163
15.9433,104
15.945,182
15.9483,402
15.9497,615
15.9515,646
15.9532,511
15.9563,348
15.9583,216
15.9594,133
15.9611,152
15.9642,332
15.966,567
15.9679,668
15.9697,570
15.9714,406
15.9735,259
15.9765,160
15.9783,132
15.9794,264
15.9811,499
15.9829,661
15.9862,618
15.988,461
15.9897,302
15.9915,186
15.9932,125
15.9962,201
15.9978,418
15.9995,626
16.0012,651
16.0029,514
16.006,350
16.0082,219
16.0093,135
16.0123,155
16.0144,337
16.0155,570
16.0172,666
16.0191,565
16.0225,398
16.0243,250
16.0254,151
16.0271,124
16.0288,259
16.0321,496
16.0336,657
16.0353,612
16.0371,454
16.0406,296
16.042,182
16.0442,121
16.0453,200
16.0485,419
16.0499,626
16.0517,649
16.0535,511
16.0553,345
16.0571,214
16.0605,132
16.0616,154
16.0631,336
16.065,570
16.0683,665
16.0698,562
16.0715,395
16.0732,249
16.075,151
16.0782,126
16.0803,262
16.0814,499
16.0832,657
16.0864,611
16.0881,453
16.09,295
16.0918,181
16.0937,122
16.0954,202
16.0972,422
16.1005,627
16.1024,648
16.1036,508
16.1053,344
16.107,214
16.1089,132
16.1119,157
16.1137,342
16.1155,575
16.1173,667
16.1191,563
16.121,398
16.1244,253
16.1265,154
16.1276,131
16.1292,268
16.131,504
16.1342,661
16.1361,611
16.1382,452
16.1393,293
16.141,179
16.1443,121
16.1464,203
16.1483,424
16.15,628
16.1518,647
16.1537,507
16.1555,342
16.1572,212
16.159,131
16.1623,157
16.1643,344
16.1653,577
16.1675,667
16.1703,563
16.1714,397
16.1744,252
16.1761,155
16.1778,132
16.1801,271
16.1812,507
16.1845,661
16.1862,608
16.188,448
16.1898,290
16.1916,177
16.1935,119
16.1957,203
16.1984,423
16.2005,625
16.2016,641
16.2041,499
16.2063,333
16.2084,204
16.2094,124
16.2112,152
16.213,339
16.2163,570
16.2183,657
16.2193,550
16.221,382
16.2228,235
16.2263,135
16.228,111
16.2296,249
16.2313,483
16.2335,635
16.2363,580
16.2373,419
16.2373,261
16.2373,148
16.2433,90
16.2453,176
16.2473,398
16.2509,601
16.2509,617
16.2537,477
16.2557,314
16.2557,188
16.2557,109
16.2557,140
16.2636,329
16.2657,561
16.2657,647
16.2657,540
16.2657,374
16.2657,231
16.2657,136
16.2657,117
16.2657,262
16.2818,501
16.2838,654
16.2858,599
16.2878,441
16.2898,286
16.2919,174
16.2939,118
16.2996,206
16.2996,429
16.2996,628
16.3017,639
16.3037,496
16.3046,331
16.3063,204
16.3063,125
16.3121,156
16.3141,346
16.3141,576
16.3177,658
16.3197,547
16.3218,381
16.3238,237
16.3258,141
16.3282,124
16.3302,269
16.3322,508
16.3332,656
16.3363,598
16.3379,437
16.3395,279
16.3411,165
16.3426,103
16.3447,185
16.3467,399
16.3487,586
16.3507,578
16.3538,414
16.3558,225
16.3578,70
16.3598,0
16.3618,0
16.3639,146
16.3659,345
16.3679,412
16.3697,299
16.3717,147
16.3737,28
16.3757,0
16.3777,17
16.3797,213
16.3818,505
16.3839,686
16.3857,648
16.3857,497
16.3901,337
16.3901,212
16.3901,142
16.3957,219
16.3977,432
16.3977,623
16.4017,626
16.4037,482
16.4057,319
16.4077,196
16.4098,120
16.4118,158
16.4118,353
16.4118,583
16.4178,661
16.4178,550
16.4178,382
16.4178,238
16.4178,142
16.4178,127
16.4178,275
16.4178,514
16.4338,659
16.4338,597
16.4338,436
16.4338,280
16.4338,169
16.4338,116
16.4338,209
16.4338,435
16.45,631
16.452,635
16.452,491
16.452,327
16.452,201
16.452,123
16.452,160
16.4639,354
16.4662,581
16.4668,655
16.4668,540
16.4668,373
16.4668,230
16.4668,134
16.4668,121
16.4668,270
16.4817,507
16.4839,650
16.486,585
16.488,422
16.49,267
16.492,155
16.494,102
16.494,196
16.4977,421
16.4977,615
16.4977,616
16.4977,470
16.4977,305
16.4977,180
16.4977,102
16.4977,140
16.5139,334
16.5139,563
16.5139,636
16.52,520
16.52,353
16.52,211
16.52,117
16.52,104
16.5296,254
16.532,492
16.534,632
16.534,565
16.534,401
16.534,246
16.534,135
16.534,83
16.5458,179
16.5458,404
16.5458,597
16.5458,594
16.5458,446
16.5458,281
16.5458,157
16.5458,80
16.5632,121
16.564,318
16.566,546
16.568,616
16.57,498
16.572,329
16.574,187
16.576,92
16.5778,81
16.5778,233
16.5778,471
16.5778,610
16.5778,539
16.5778,376
16.5778,221
16.5778,110
16.5939,60
16.5939,159
16.5939,387
16.5939,581
16.5939,575
16.5939,424
16.5939,258
16.5939,133
16.6097,56
16.6118,99
16.6143,296
16.6164,525
16.6182,594
16.6199,475
16.6222,307
16.6234,167
16.625,74
16.6267,67
16.6287,224
16.6308,465
16.6328,605
16.6348,537
16.6368,376
16.6388,223
16.6409,117
16.6433,70
16.6453,175
16.6453,407
16.6453,603
16.6453,601
16.6453,454
16.6453,293
16.6568,172
16.6568,100
16.6568,147
16.6644,351
16.6644,581
16.6644,650
16.6644,533
16.6644,368
16.6743,228
16.6743,136
16.6743,129
16.6788,287
16.6809,527
16.6809,663
16.6809,593
16.6809,430
16.6894,277
16.6894,169
16.6894,121
16.6953,224
16.6953,453
16.6953,643
16.6953,635
16.6953,485
16.7053,321
16.708,197
16.708,122
16.708,168
16.7129,370
16.7129,596
16.7129,661
16.7129,542
16.7209,376
16.7209,236
16.7209,143
16.7209,137
16.7209,295
16.7209,534
16.7209,667
16.7209,593
16.737,429
16.739,275
16.7421,166
16.7441,119
16.7441,224
16.7481,454
16.7481,642
16.7528,630
16.7528,480
16.7561,316
16.7581,193
16.7601,119
16.7615,168
16.7632,371
16.7649,596
16.7649,659
16.7689,537
16.7689,371
16.7689,231
16.7689,139
16.7689,134
16.7689,294
16.7689,533
16.7689,663
16.7861,588
16.7881,425
16.7901,271
16.7921,164
16.7941,119
16.7941,227
16.7941,458
16.7941,645
16.8021,632
16.8041,482
16.8041,318
16.8041,195
16.8041,122
16.8041,172
16.8041,376
16.8169,599
16.8186,660
16.8206,537
16.8226,371
16.8246,232
16.8266,141
16.8279,139
16.8279,301
16.8326,539
16.8326,669
16.8326,591
16.8326,428
16.8326,275
16.8326,168
16.8326,123
16.8326,231
16.8485,462
16.8485,648
16.8485,633
16.8485,483
16.8485,320
16.8485,198
16.8485,125
16.8485,176
16.8652,381
16.8652,602
16.8671,659
16.8708,534
16.8728,368
16.8746,228
16.8764,137
16.8764,136
16.8764,298
16.8805,537
16.8805,664
16.8805,585
16.8805,421
16.8805,269
16.8805,163
16.8805,120
16.8965,231
16.8981,463
16.9006,647
16.9026,629
16.9026,477
16.9026,312
16.9026,189
16.9026,116
16.9122,168
16.9144,374
16.9168,596
16.9168,651
16.9168,526
16.9168,356
16.9168,214
16.9168,119
16.9283,117
16.9283,279
16.9283,517
16.9283,644
16.9283,562
16.9283,399
16.9283,246
16.9283,140
16.9446,96
16.9446,208
16.9486,441
16.9506,624
16.9526,605
16.9546,453
16.9546,292
16.9546,172
16.9605,102
16.9605,159
16.9605,367
16.9653,590
16.9653,644
16.9653,518
16.9653,351
16.9653,215
16.9766,126
16.9766,129
16.9766,297
16.9766,538
16.9766,663
16.9766,583
16.9766,420
16.9766,268
16.9926,162
16.9926,120
16.9926,234
16.9926,467
16.9926,647
16.9926,626
16.9926,472
16.9926,308
17.0087,188
17.0087,118
17.0118,177
17.0118,387
17.0118,607
17.0118,657
17.0118,528
17.0118,360
17.0246,221
17.0246,131
17.0246,134
17.0297,301
17.0317,540
17.0317,662
17.0317,578
17.0317,411
17.0406,258
17.0426,149
17.0448,101
17.0459,208
17.0478,432
17.0495,599
17.0529,560
17.0529,384
17.0567,197
17.0581,47
17.0581,0
17.0581,12
17.0629,175
17.0656,368
17.0656,404
17.0656,275
17.0726,125
17.0726,13
17.076,0
17.076,32
17.08,251
17.0821,542
17.0841,688
17.0841,631
17.0886,475
17.0901,318
17.0901,200
17.0901,144
17.0901,246
17.0901,469
17.0901,641
17.0901,612
17.1046,457
17.1046,295
17.1046,177
17.1046,110
17.1119,173
17.1119,387
17.1119,607
17.1119,656
17.1206,527
17.1221,360
17.1241,222
17.1261,132
17.1279,138
17.1279,309
17.1321,549
17.1321,667
17.1363,580
17.1381,414
17.1381,262
17.1381,156
17.1381,118
17.1381,237
17.1381,470
17.1381,647
17.1524,618
17.1524,461
17.1524,298
17.1524,177
17.1524,108
17.1619,170
17.1619,381
17.1658,599
17.1687,643
17.1692,513
17.1692,346
17.1692,209
17.1692,121
17.1692,130
17.1692,302
17.1692,541
17.1844,657
17.1844,568
17.1844,400
17.1906,247
17.1906,141
17.1906,103
17.1906,223
17.1906,459
17.2002,635
17.2022,605
17.2022,450
17.2022,287
17.2022,167
17.2022,98
17.2022,161
17.2134,372
17.2161,589
17.2186,630
17.2206,496
17.2226,327
17.2246,191
17.2266,103
17.2289,112
17.2289,285
17.2289,523
17.2289,636
17.2289,545
17.2387,376
17.2406,225
17.2426,121
17.2426,84
17.2426,206
17.2426,442
17.2426,617
17.2426,583
17.2545,426
17.2545,264
17.2586,145
17.2586,76
17.2586,141
17.2586,354
17.266,571
17.266,610
17.2705,474
17.2705,305
17.2705,169
17.2705,80
17.2705,90
17.2705,263
17.2705,501
17.2705,612
17.3023,519
17.3023,352
17.3023,203
17.3023,98
17.3023,62
17.3023,186
17.3023,421
17.3023,594
17.3023,560
17.3023,401
17.306,239
17.3086,120
17.3086,53
17.3086,120
17.3086,334
17.3086,552
17.3184,591
17.3206,457
17.3226,290
17.3226,157
17.3226,71
17.3226,84
17.3226,261
17.3226,501
17.3345,614
17.3345,521
17.3345,355
17.3345,208
17.3345,107
17.3345,75
17.3345,203
17.3345,443
17.3504,618
17.3504,585
17.3504,431
17.3504,273
17.3504,158
17.3504,97
17.3504,169
17.3504,388
17.3666,606
17.3666,644
17.3666,512
17.3666,346
17.3666,213
17.3666,128
17.3666,143
17.3666,321
17.3826,559
17.384,668
17.3871,575
17.3883,408
17.3903,258
17.3922,157
17.394,125
17.394,253
17.3987,490
17.3987,660
17.3987,624
17.3987,466
17.3987,305
17.3987,186
17.3987,120
17.3987,190
17.4148,406
17.4161,619
17.4181,653
17.4201,517
17.4221,350
17.4241,216
17.4261,130
17.4279,144
17.4306,321
17.4306,559
17.4306,664
17.4306,568
17.4306,401
17.4306,251
17.4306,149
17.4306,117
17.4463,246
17.4484,483
17.4501,650
17.4501,611
17.4501,452
17.4501,290
17.4501,173
17.4501,109
17.462,183
17.4641,401
17.4669,615
17.4669,646
17.4669,510
17.4669,343
17.4669,210
17.4669,124
17.4782,141
17.4782,319
17.4782,556
17.4782,659
17.4782,562
17.4782,395
17.4782,247
17.4782,145
17.4941,115
17.4962,245
17.4962,483
17.4962,650
17.4962,608
17.4962,451
17.4962,292
17.4962,175
17.5111,113
17.5111,188
17.5111,405
17.5111,617
17.5111,647
17.5111,509
17.5111,343
17.5111,209
17.5263,125
17.5263,144
17.5263,325
17.5326,563
17.5346,664
17.5366,565
17.5386,398
17.5406,249
17.5426,149
17.5446,120
17.5446,252
17.5446,490
17.5446,654
17.5446,612
17.5446,454
17.5446,294
17.5585,178
17.5606,116
17.5606,192
17.5606,412
17.5671,622
17.5671,648
17.5671,511
17.5671,345
17.5745,211
17.5745,127
17.5745,147
17.5745,328
17.5745,565
17.5745,663
17.5745,563
17.5745,396
17.5905,248
17.5926,148
17.5926,120
17.5964,254
17.5964,491
17.5964,653
17.5964,608
17.5964,448
17.6064,288
17.6064,172
17.6064,110
17.6064,187
17.6064,407
17.6064,614
17.6064,635
17.6064,494
17.6224,323
17.6245,189
17.6245,104
17.6298,124
17.6298,307
17.6298,542
17.6298,640
17.6298,538
17.6386,371
17.6406,224
17.6406,124
17.6406,97
17.6464,234
17.6464,474
17.6464,637
17.6464,593
17.6546,436
17.6546,277
17.6546,163
17.6546,103
17.6624,181
17.6624,402
17.6624,611
17.6671,635
17.6706,497
17.6706,332
17.6706,203
17.6706,122
17.6706,147
17.6706,332
17.6706,569
17.6706,664
17.6865,562
17.6865,395
17.6865,248
17.6865,148
17.6865,123
17.6865,260
17.6865,498
17.6865,658
17.7024,610
17.7041,450
17.7066,289
17.7086,173
17.7106,112
17.7106,193
17.7106,414
17.7106,622
17.7183,643
17.7206,503
17.7206,336
17.7206,205
17.7206,123
17.7206,147
17.7206,333
17.7206,569
17.7344,661
17.7362,554
17.7362,380
17.7362,224
17.7362,114
17.7362,77
17.7459,200
17.7481,419
17.7499,554
17.7522,473
17.7534,278
17.7567,94
17.7581,0
17.7606,0
17.7627,11
17.7627,179
17.7627,371
17.7674,399
17.7674,286
17.7674,179
17.7674,122
17.7674,108
17.7778,180
17.7778,393
17.7778,631
17.7778,688
17.7778,587
17.7778,409
17.7778,252
17.7778,143
17.7941,113
17.7941,250
17.7941,489
17.7941,648
17.7941,599
17.7941,441
17.7941,284
17.7941,171
17.81,114
17.81,200
17.8141,424
17.8161,630
17.8181,648
17.8201,506
17.8221,339
17.8241,207
17.826,125
17.826,151
17.826,340
17.826,574
17.826,663
17.826,556
17.826,389
17.826,242
17.8421,143
17.8441,121
17.8441,261
17.8441,500
17.8441,656
17.8441,602
17.8441,440
17.8441,280
17.8581,166
17.8581,107
17.8581,193
17.8581,416
17.8581,621
17.8681,637
17.8681,494
17.8681,326
17.8745,196
17.875,113
17.875,141
17.875,329
17.875,564
17.875,652
17.875,544
17.875,377
17.8901,230
17.8901,132
17.8901,111
17.8901,253
17.8901,492
17.8901,645
17.8901,590
17.8901,427
17.906,268
17.906,154
17.906,96
17.906,183
17.906,407
17.906,610
17.906,621
17.906,477
17.9219,310
17.9219,180
17.9219,97
17.9219,126
17.9219,315
17.9219,549
17.9219,635
17.9219,523
17.9379,356
17.9379,209
17.9379,110
17.9379,90
17.9379,233
17.9379,473
17.9379,624
17.9379,566
17.954,404
17.954,245
17.954,131
17.954,73
17.954,161
17.954,385
17.954,588
17.9686,598
17.9698,453
17.9698,285
17.9698,155
17.9698,74
17.9698,103
17.9698,293
17.9698,526
17.9698,609
17.9859,498
17.9859,327
17.9859,183
17.9859,85
17.9859,66
17.9859,211
17.9859,451
17.9859,604
18.002,546
18.002,384
18.002,226
18.002,112
18.002,56
18.002,146
18.002,372
18.002,576
18.0179,587
18.0205,444
18.0205,279
18.0205,152
18.0205,74
18.0205,108
18.0299,302
18.0299,537
18.0341,622
18.0341,513
18.0341,345
18.0341,203
18.0341,109
18.0341,95
18.0341,245
18.0341,489
18.0501,642
18.0501,585
18.0501,425
18.0501,270
18.0501,160
18.0501,108
18.0501,202
18.0501,430
18.0661,632
18.0689,641
18.0689,497
18.0689,332
18.0689,204
18.0689,125
18.0689,159
18.0689,354
18.0823,586
18.0823,668
18.0823,556
18.0823,388
18.0823,243
18.0823,147
18.0823,131
18.0823,279
18.0981,520
18.1005,666
18.1005,605
18.1005,443
18.1005,283
18.1005,169
18.1005,114
18.1005,207
18.1141,434
18.1141,634
18.1141,641
18.1141,495
18.1141,329
18.1141,202
18.1141,123
18.1141,158
18.1302,352
18.1325,582
18.1345,661
18.1365,546
18.1385,379
18.1405,234
18.1405,137
18.1405,122
18.1463,271
18.1463,512
18.1463,659
18.1463,598
18.1463,435
18.1463,280
18.1463,169
18.1463,115
18.1622,210
18.1644,438
18.1665,636
18.1691,640
18.1705,494
18.1725,327
18.1745,200
18.1765,122
18.1779,158
18.1802,354
18.1825,585
18.1845,661
18.1845,548
18.1845,380
18.1845,236
18.1845,140
18.194,126
18.194,277
18.194,517
18.194,663
18.194,599
18.194,435
18.194,278
18.194,167
18.2101,114
18.2114,210
18.2144,439
18.2166,637
18.2186,640
18.2206,494
18.2206,329
18.2206,201
18.226,122
18.228,159
18.228,356
18.228,586
18.228,663
18.228,549
18.228,381
18.228,237
18.242,143
18.242,129
18.2464,280
18.2464,521
18.2464,664
18.2464,600
18.2464,436
18.2464,279
18.258,168
18.2607,115
18.2624,212
18.2644,440
18.2666,637
18.2691,638
18.2691,491
18.2726,325
18.2746,198
18.2766,121
18.2789,160
18.2789,358
18.2789,588
18.2789,662
18.2789,547
18.2789,380
18.2906,236
18.2906,140
18.2906,127
18.2964,279
18.2964,518
18.2964,661
18.2964,594
18.2964,430
18.3065,274
18.3065,163
18.3065,111
18.3065,208
18.3065,437
18.3065,633
18.3065,633
18.3065,485
18.3226,317
18.3226,188
18.3226,108
18.3226,145
18.3226,339
18.3226,568
18.3226,640
18.3226,522
18.3387,353
18.3406,210
18.3426,115
18.3446,103
18.3446,257
18.3486,498
18.3486,641
18.3486,576
18.3546,414
18.3561,260
18.3561,152
18.3561,102
18.3561,202
18.3561,432
18.3561,626
18.3561,625
18.3705,478
18.3705,313
18.3705,188
18.3705,113
18.3705,156
18.3705,357
18.3705,588
18.3705,662
18.3866,545
18.3882,378
18.3882,236
18.3882,141
18.3882,129
18.3882,283
18.3882,523
18.3882,662
18.4025,594
18.4041,430
18.4041,274
18.4041,164
18.4041,113
18.4041,214
18.4041,444
18.4041,638
18.4186,635
18.4201,487
18.4201,320
18.4201,193
18.4201,116
18.4201,159
18.4201,359
18.4201,588
18.4348,658
18.4348,540
18.4386,372
18.4406,228
18.4426,130
18.4446,114
18.4446,260
18.4446,490
18.4506,616
18.4506,529
18.4526,343
18.4526,162
18.4526,19
18.4526,0
18.4526,37
18.4526,219
18.4666,386
18.4681,369
18.4711,223
18.4726,78
18.4746,0
18.4766,0
18.4779,58
18.4801,303
18.4826,581
18.4846,682
18.4846,583
18.4846,420
18.4846,270
18.4846,163
18.4846,141
18.4846,285
18.4984,517
18.5,650
18.5,577
18.5,415
18.5,262
18.5,154
18.5,108
18.5,214
18.5144,446
18.5144,640
18.5144,634
18.5144,485
18.5144,320
18.5144,195
18.5144,120
18.5144,165
18.5305,367
18.5305,594
18.5305,661
18.5305,540
18.5305,372
18.5305,229
18.5305,135
18.5305,127
18.5463,284
18.5481,524
18.5481,660
18.5481,587
18.5481,424
18.5481,269
18.5481,159
18.5481,112
18.5622,215
18.5642,445
18.5642,636
18.5642,627
18.5711,476
18.5711,310
18.5711,185
18.5711,109
18.578,155
18.58,357
18.5826,584
18.5846,648
18.5866,528
18.5886,360
18.5886,217
18.5886,124
18.594,117
18.594,276
18.594,514
18.594,649
18.594,575
18.594,410
18.594,254
18.594,145
18.61,97
18.6121,201
18.6121,432
18.6121,622
18.6121,612
18.6121,461
18.6121,295
18.6121,171
18.626,95
18.6295,142
18.6295,343
18.6295,569
18.6295,633
18.6295,509
18.6295,340
18.6295,199
18.6421,105
18.6446,98
18.6464,257
18.6486,496
18.6506,631
18.6526,555
18.6546,389
18.6566,234
18.6586,123
18.6606,75
18.6624,181
18.6644,411
18.6666,601
18.6686,588
18.6686,435
18.6714,271
18.6746,146
18.6762,69
18.678,117
18.6801,319
18.6826,546
18.6826,608
18.6826,484
18.6826,314
18.6907,173
18.6907,79
18.6907,73
18.6907,232
18.6907,472
18.6907,604
18.6907,528
18.6907,362
18.7067,208
18.7067,98
18.7067,51
18.7129,157
18.7129,389
18.7129,579
18.7129,567
18.7129,415
18.7226,251
18.7246,128
18.7266,55
18.7279,107
18.73,311
18.7326,542
18.7326,606
18.7326,484
18.7385,318
18.7401,182
18.7401,91
18.7401,90
18.7401,255
18.7401,499
18.7401,632
18.7401,559
18.7544,398
18.7544,247
18.7544,142
18.7544,98
18.7544,209
18.7544,444
18.7544,634
18.7544,623
18.7705,473
18.7716,310
18.774,188
18.7766,115
18.7766,167
18.7766,374
18.7766,599
18.7766,660
18.7866,536
18.7882,369
18.789,228
18.7926,136
18.7956,133
18.7956,296
18.7986,537
18.8006,666
18.8026,590
18.8042,425
18.8066,270
18.8086,162
18.8102,117
18.8124,226
18.8129,459
18.8129,645
18.8129,631
18.8129,478
18.8129,313
18.8129,190
18.8129,117
18.8283,169
18.8283,376
18.8283,600
18.8283,658
18.8283,533
18.8283,366
18.8283,224
18.8283,133
18.8443,131
18.8443,295
18.8443,536
18.8443,665
18.8443,586
18.8443,420
18.8443,265
18.8443,158
18.8606,113
18.8606,225
18.8606,458
18.8606,645
18.8606,629
18.8606,477
18.8719,313
18.8719,191
18.8766,118
18.8766,172
18.8766,379
18.8766,603
18.8766,659
18.8766,534
18.8766,367
18.8766,226
18.8927,134
18.8927,133
18.8927,299
18.8927,539
18.8927,667
18.8927,587
18.8927,422
18.8927,269
18.9088,162
18.9106,119
18.9106,231
18.9106,465
18.9106,650
18.9106,632
18.9106,479
18.9106,315
18.9248,192
18.9248,120
18.9248,175
18.9248,382
18.9248,605
18.9248,660
18.9248,533
18.9248,365
18.9408,226
18.9408,135
18.9408,135
18.9408,300
18.9408,542
18.9408,668
18.9408,587
18.9408,422
18.9568,267
18.9582,160
18.9606,117
18.9606,229
18.9644,463
18.9666,647
18.9686,628
18.9686,476
18.972,312
18.972,190
18.972,119
18.972,174
18.972,383
18.972,605
18.972,659
18.972,532
18.9881,364
18.9901,224
18.9921,133
18.9941,134
18.9941,300
18.9941,540
18.9941,665
18.9941,584
19.004,419
19.004,266
19.004,159
19.004,117
19.004,231
19.004,464
19.004,646
19.004,625
19.02,472
19.02,307
19.02,183
19.02,111
19.02,167
19.02,375
19.02,599
19.02,651
19.0359,524
19.0359,356
19.0359,217
19.0359,125
19.0359,125
19.0359,290
19.0359,527
19.0359,647
19.052,562
19.052,393
19.0566,239
19.0586,132
19.0606,91
19.0606,206
19.0644,441
19.0666,624
19.0686,601
19.0691,448
19.0724,285
19.0746,165
19.0746,96
19.0746,157
19.0746,368
19.0746,591
19.0847,643
19.0862,515
19.0886,348
19.0906,210
19.0926,120
19.0946,124
19.0946,293
19.0946,535
19.1006,658
19.1006,576
19.1006,412
19.1006,262
19.1006,157
19.1006,118
19.1006,236
19.1006,471
19.1166,651
19.1166,628
19.1166,473
19.1166,308
19.1166,186
19.1166,116
19.1166,175
19.1166,385
19.1326,605
19.1326,655
19.1326,525
19.1326,357
19.1326,219
19.1326,128
19.1326,133
19.1326,302
19.1485,542
19.1506,663
19.1526,578
19.1546,412
19.1566,260
19.1586,154
19.1586,114
19.1586,228
19.1644,458
19.1666,629
19.1666,594
19.1666,427
19.1728,249
19.1728,109
19.1728,15
19.1728,45
19.1802,223
19.1826,416
19.1826,440
19.1826,290
19.1826,114
19.1826,0
19.1826,0
19.1826,0
19.1961,135
19.1986,389
19.1986,563
19.1986,537
19.1986,419
19.1986,297
19.1986,203
19.1986,162
19.2122,270
19.2142,491
19.2162,656
19.2162,620
19.2162,458
19.2162,292
19.2162,172
19.2162,104
19.228,169
19.228,383
19.228,607
19.228,655
19.228,526
19.228,359
19.228,221
19.228,132
19.244,139
19.246,310
19.246,550
19.246,668
19.246,580
19.246,413
19.246,260
