timestamp,ecg_value
0.0,198
0.0,198
0.0,198
0.0,197
0.002,197
0.002,197
0.002,197
0.002,197
0.002,197
0.002,198
0.002,197
0.002,197
0.004,197
0.004,197
0.004,197
0.004,197
0.004,197
0.004,198
0.004,197
0.004,197
0.004,197
0.004,197
0.006,197
0.006,197
0.006,197
0.006,198
0.006,198
0.006,198
0.006,197
0.006,197
0.006,197
0.008,197
0.008,197
0.008,198
0.008,198
0.008,197
0.008,197
0.008,197
0.008,197
0.008,197
0.008,197
0.0101,197
0.0101,197
0.0101,198
0.0101,197
0.0101,197
0.0101,197
0.0101,197
0.0101,197
0.0101,197
0.0101,198
0.0121,197
0.0121,197
0.0121,197
0.0121,197
0.0121,197
0.0121,197
0.0121,197
0.0121,197
0.0121,197
0.0141,197
0.0141,197
0.0141,197
0.0154,197
0.017,197
0.0174,197
0.0174,198
0.0174,198
0.0184,197
0.0188,197
0.0191,197
0.0191,197
0.0191,197
0.0191,197
0.0191,197
0.0191,198
0.0191,197
0.0191,197
0.0191,197
0.0191,197
0.0191,197
0.0191,197
0.0191,197
0.0191,197
0.0191,198
0.0191,198
0.0191,197
0.0238,197
0.0238,197
0.0238,197
0.0238,197
0.0238,197
0.0238,198
0.0238,197
0.0238,197
0.0238,197
0.0238,197
0.0238,197
0.0238,197
0.0238,197
0.0238,197
0.0238,197
0.0238,197
0.0238,197
0.0238,197
0.0238,197
0.0238,197
0.0238,197
0.0238,197
0.0238,197
0.0238,197
0.0238,197
0.0238,197
0.0238,197
0.0238,197
0.0238,197
0.0238,198
0.0238,197
0.0238,197
0.0238,197
0.0238,197
0.0321,197
0.0325,197
0.0325,197
0.0331,197
0.0331,197
0.0331,197
0.0331,197
0.0331,197
0.0331,197
0.0331,197
0.0331,197
0.0331,197
0.0331,197
0.0331,198
0.0364,198
0.0364,197
0.0364,197
0.0364,197
0.0364,197
0.0364,197
0.0364,197
0.0364,197
0.0364,197
0.0364,197
0.0364,197
0.0364,197
0.0364,197
0.0364,197
0.0364,197
0.0403,197
0.0403,197
0.0403,197
0.0403,197
0.0403,197
0.0403,197
0.0403,197
0.0403,197
0.0423,197
0.0423,197
0.0423,197
0.0423,197
0.0423,197
0.0423,197
0.0439,197
0.0439,197
0.0439,197
0.0447,197
0.0447,197
0.0452,197
0.0452,197
0.0452,197
0.0452,197
0.0452,197
0.0452,197
0.0452,197
0.0452,197
0.0452,197
0.0452,197
0.0452,197
0.0488,197
0.0488,198
0.0505,198
0.0505,198
0.0505,198
0.0505,198
0.0505,199
0.0505,199
0.0505,199
0.0505,199
0.0505,199
0.0505,198
0.0505,199
0.0505,198
0.0505,198
0.0505,198
0.0505,197
0.0505,197
0.0505,197
0.0505,197
0.0505,198
0.0505,198
0.0505,197
0.0505,197
0.0505,197
0.0505,197
0.0505,197
0.0505,197
0.0505,197
0.0505,197
0.0505,197
0.0505,197
0.0505,197
0.0505,197
0.0505,197
0.0505,198
0.0505,203
0.0505,209
0.0505,244
0.0505,281
0.0505,312
0.0505,321
0.0505,320
0.0505,317
0.0505,310
0.0505,297
0.0505,282
0.0505,270
0.0505,259
0.0505,250
0.0647,243
0.0647,238
0.0647,236
0.0647,233
0.0647,230
0.0647,226
0.0647,223
0.0668,220
0.0668,219
0.0668,217
0.0668,215
0.0668,213
0.068,212
0.068,210
0.0685,208
0.0685,206
0.0685,204
0.0685,203
0.0685,202
0.0685,202
0.0685,201
0.0685,200
0.0685,200
0.0685,199
0.0685,199
0.0685,199
0.0685,199
0.0685,199
0.0685,199
0.0685,199
0.0685,200
0.0685,200
0.0685,200
0.0685,199
0.0685,199
0.0685,199
0.0685,199
0.0685,199
0.0685,199
0.0685,198
0.0733,198
0.0733,198
0.0733,198
0.0733,198
0.0733,198
0.0733,198
0.0733,198
0.0733,198
0.0733,197
0.0733,197
0.0733,197
0.0733,197
0.0733,197
0.0733,198
0.0733,198
0.0733,197
0.0733,197
0.0733,197
0.0733,197
0.0733,197
0.0733,197
0.0733,197
0.0733,198
0.0733,198
0.0733,197
0.0733,197
0.0733,197
0.0733,197
0.0733,197
0.0733,197
0.0733,197
0.0733,197
0.0733,197
0.0733,197
0.0733,197
0.0733,197
0.0733,197
0.0733,198
0.0733,198
0.0733,198
0.0733,197
0.0733,197
0.0733,197
0.0733,197
0.0733,198
0.0733,205
0.0733,205
0.0733,204
0.0733,204
0.0733,203
0.0733,202
0.0733,201
0.0733,201
0.0733,200
0.0733,200
0.0733,200
0.0733,200
0.0733,199
0.0817,199
0.0817,199
0.0817,201
0.0821,212
0.0821,235
0.0821,261
0.0821,269
0.0821,274
0.0821,273
0.0821,271
0.0821,270
0.0821,269
0.0821,266
0.0821,265
0.0821,266
0.0821,268
0.0821,272
0.085,273
0.085,274
0.085,277
0.085,278
0.085,276
0.085,276
0.085,275
0.085,275
0.085,270
0.085,261
0.085,251
0.085,243
0.085,236
0.085,231
0.085,226
0.085,221
0.085,217
0.085,214
0.085,212
0.085,210
0.085,208
0.085,206
0.085,205
0.085,204
0.085,203
0.085,202
0.085,201
0.085,200
0.085,200
0.085,200
0.085,200
0.0899,200
0.0899,199
0.0899,199
0.0899,199
0.0899,200
0.0899,200
0.0899,200
0.0899,200
0.0899,200
0.0899,199
0.0899,199
0.0899,199
0.0899,199
0.0899,199
0.0899,199
0.0899,199
0.0899,199
0.0899,199
0.0899,199
0.0899,198
0.0899,198
0.0899,198
0.0899,198
0.0899,199
0.0899,199
0.0899,198
0.0899,198
0.0899,198
0.0899,198
0.0899,198
0.0899,198
0.0899,198
0.0899,198
0.0899,198
0.0899,198
0.0899,197
0.0899,197
0.0899,197
0.0899,197
0.0899,197
0.0899,197
0.0899,197
0.0899,197
0.0899,197
0.0899,197
0.0899,197
0.0899,197
0.0899,197
0.0899,198
0.0899,198
0.0899,197
0.0899,197
0.0979,197
0.0979,197
0.0988,197
0.0988,197
0.0988,197
0.0988,197
0.1001,197
0.1001,197
0.1001,197
0.1009,198
0.1009,198
0.1009,199
0.1009,199
0.1009,199
0.1009,200
0.1009,200
0.1009,200
0.1009,200
0.1009,201
0.1009,201
0.1009,202
0.1009,202
0.1009,203
0.1009,204
0.1009,204
0.1009,205
0.1009,206
0.1009,207
0.1009,208
0.1009,208
0.1009,208
0.1009,208
0.1009,208
0.1009,209
0.1009,210
0.1009,210
0.1009,211
0.1009,211
0.1009,212
0.1009,213
0.1009,215
0.1009,219
0.1009,226
0.1009,228
0.1009,230
0.1009,236
0.1009,237
0.1009,241
0.1061,245
0.1061,251
0.1061,256
0.1061,262
0.1061,266
0.1061,268
0.1061,269
0.1061,269
0.1061,268
0.1061,268
0.1061,269
0.1061,268
0.1061,268
0.1061,270
0.1061,275
0.1061,279
0.1061,289
0.1061,300
0.1061,312
0.1061,319
0.1061,321
0.1061,322
0.1061,322
0.1061,322
0.1061,320
0.1061,316
0.1061,317
0.1061,322
0.1061,328
0.1061,331
0.1061,329
0.1061,327
0.1061,325
0.1061,323
0.1061,323
0.1061,328
0.1061,332
0.1061,332
0.1061,329
0.1061,325
0.1061,319
0.1061,315
0.1061,312
0.1061,316
0.1061,325
0.1061,332
0.1061,333
0.1061,331
0.1061,326
0.1061,322
0.1061,320
0.1061,322
0.1061,330
0.1061,338
0.1061,337
0.1061,328
0.1061,320
0.1061,316
0.1061,318
0.1061,322
0.1061,328
0.1061,335
0.1061,335
0.1061,330
0.1061,323
0.1061,319
0.1061,319
0.1061,322
0.1145,330
0.1145,338
0.1145,341
0.1145,335
0.1145,326
0.1145,319
0.1145,317
0.1145,320
0.1145,326
0.1145,332
0.1145,334
0.1145,332
0.1145,331
0.1145,330
0.1145,331
0.1145,329
0.1145,329
0.1145,328
0.1145,328
0.1145,329
0.1145,329
0.1145,326
0.1145,320
0.1145,315
0.1145,311
0.1145,307
0.1145,303
0.1145,299
0.1145,294
0.1145,290
0.1145,291
0.1186,291
0.1186,289
0.1186,290
0.1186,299
0.1186,306
0.1186,310
0.1186,313
0.1186,313
0.1197,313
0.1197,315
0.1197,317
0.1197,320
0.1197,326
0.1197,326
0.1197,324
0.1197,317
0.1197,312
0.1197,311
0.1197,315
0.1197,317
0.1197,319
0.1197,321
0.1197,317
0.1213,312
0.1213,308
0.1213,306
0.1213,303
0.1213,300
0.1213,300
0.1213,299
0.1213,299
0.1213,295
0.1213,291
0.1213,289
0.1213,289
0.1213,290
0.1213,291
0.123,291
0.123,290
0.123,287
0.123,283
0.123,281
0.123,280
0.123,279
0.123,281
0.123,281
0.123,283
0.123,285
0.123,285
0.123,285
0.123,280
0.123,277
0.123,274
0.1247,273
0.1247,274
0.1247,274
0.1247,272
0.1247,271
0.1247,269
0.1247,267
0.1247,264
0.1247,263
0.1247,263
0.1247,264
0.1247,262
0.1247,260
0.1263,255
0.1263,251
0.1263,247
0.1263,245
0.1263,244
0.1263,243
0.1263,242
0.1263,244
0.1263,246
0.1263,247
0.1263,251
0.1263,268
0.1263,299
0.1263,323
0.1279,323
0.1279,319
0.1279,316
0.1279,315
0.1279,316
0.1279,311
0.1279,307
0.1279,306
0.1279,305
0.1279,303
0.1279,301
0.1279,300
0.1279,301
0.1279,302
0.1294,303
0.1294,305
0.1294,306
0.1294,304
0.1294,305
0.1294,303
0.1294,303
0.1294,306
0.1294,309
0.1294,311
0.1294,315
0.1294,311
0.1294,307
0.1294,303
0.1294,296
0.1294,290
0.1294,286
0.1294,286
0.1294,285
0.1294,281
0.1294,277
0.1294,271
0.1294,265
0.1294,260
0.1294,259
0.1294,260
0.1294,256
0.1294,252
0.1294,248
0.1294,245
0.1294,242
0.1294,241
0.1294,240
0.1294,244
0.1294,247
0.1294,255
0.1294,261
0.1294,262
0.1294,260
0.1294,258
0.1294,257
0.1294,259
0.1294,264
0.1294,269
0.1294,272
0.1294,271
0.1294,270
0.1294,268
0.1294,267
0.1294,267
0.1294,270
0.1294,273
0.1294,277
0.1294,279
0.1294,279
0.1294,278
0.1294,276
0.1294,276
0.1294,279
0.1294,284
0.1294,287
0.1294,286
0.1294,283
0.1294,280
0.1294,278
0.1294,278
0.1294,281
0.1294,284
0.1294,287
0.1294,292
0.1294,294
0.1294,292
0.1294,288
0.1294,284
0.1294,282
0.1294,283
0.1294,287
0.1294,292
0.1294,294
0.1294,292
0.1294,288
0.1294,283
0.1389,280
0.1389,278
0.1389,279
0.1389,284
0.1389,287
0.1389,288
0.1389,287
0.1389,284
0.1389,280
0.1389,278
0.1389,278
0.1389,279
0.1389,281
0.1389,282
0.1389,281
0.1389,279
0.1389,278
0.1389,277
0.1389,278
0.1389,282
0.1389,286
0.1389,285
0.1389,283
0.1389,279
0.1389,278
0.1389,282
0.1389,285
0.1389,287
0.1389,290
0.1389,291
0.1389,287
0.1389,286
0.1389,284
0.1389,280
0.1389,280
0.1389,281
0.1389,285
0.1389,289
0.1389,290
0.1389,289
0.1389,286
0.1389,284
0.1389,284
0.1389,285
0.1389,288
0.1389,292
0.1389,298
0.1389,298
0.1389,297
0.1389,296
0.1389,294
0.1451,293
0.1451,292
0.1451,292
0.1451,291
0.1451,292
0.1451,291
0.1451,289
0.1451,287
0.1451,290
0.1451,290
0.1451,295
0.1451,298
0.1451,295
0.1451,292
0.1451,289
0.1451,286
0.1471,285
0.1471,288
0.1471,291
0.1471,294
0.1471,296
0.1471,295
0.1471,293
0.1471,291
0.1471,287
0.1471,286
0.1471,287
0.1471,290
0.1471,291
0.1471,292
0.1471,289
0.1471,285
0.1491,283
0.1491,281
0.1491,283
0.1491,287
0.1491,289
0.1491,289
0.1491,285
0.1491,281
0.1491,277
0.1491,277
0.1491,278
0.1491,284
0.1491,286
0.1491,289
0.1491,289
0.1491,287
0.1491,284
0.1511,283
0.1511,283
0.1511,286
0.1511,291
0.1511,295
0.1511,297
0.1511,296
0.1511,293
0.1511,289
0.1511,287
0.1511,290
0.1511,294
0.1511,299
0.1511,302
0.1511,299
0.1511,294
0.1511,288
0.1511,286
0.1531,288
0.1531,290
0.1531,293
0.1531,293
0.1531,291
0.1531,287
0.1531,285
0.1531,283
0.1531,285
0.1531,286
0.1531,288
0.1531,290
0.1531,284
0.1531,276
0.1531,268
0.1549,261
0.1549,256
0.1549,255
0.1549,255
0.1549,255
0.1549,253
0.1549,249
0.1549,244
0.1549,241
0.1549,238
0.1549,235
0.1549,233
0.1549,232
0.1549,231
0.1549,230
0.1549,229
0.1549,228
0.1549,228
0.1549,226
0.1549,225
0.1549,223
0.1549,222
0.1549,221
0.1549,221
0.1549,221
0.1549,221
0.1549,222
0.1549,223
0.1549,223
0.1549,223
0.1549,223
0.1549,224
0.1549,224
0.1549,226
0.1549,225
0.1549,225
0.1549,224
0.1549,222
0.1549,220
0.1549,218
0.1549,217
0.1549,216
0.1549,214
0.1549,213
0.1549,212
0.1549,211
0.1549,212
0.1549,213
0.1549,213
0.1549,213
0.1549,212
0.1549,212
0.1549,211
0.1549,211
0.1549,211
0.1549,212
0.1549,213
0.1549,213
0.1549,213
0.1549,214
0.1549,213
0.1549,212
0.1549,212
0.1549,212
0.1549,213
0.1549,213
0.1549,213
0.1549,212
0.1549,212
0.1549,212
0.1549,213
0.1549,213
0.1549,214
0.1549,215
0.1549,216
0.1549,216
0.1549,216
0.1549,217
0.1549,217
0.1549,217
0.1549,218
0.1549,218
0.1549,218
0.1549,218
0.1549,217
0.1549,217
0.1549,217
0.1549,217
0.1549,217
0.1549,217
0.1549,216
0.1549,216
0.1549,216
0.1549,216
0.1549,216
0.1549,215
0.1549,215
0.1549,215
0.1549,215
0.1549,215
0.1549,216
0.1549,216
0.1549,216
0.1549,216
0.1549,216
0.1549,216
0.1549,217
0.1549,218
0.1549,219
0.1549,219
0.1549,220
0.1549,220
0.1549,220
0.1549,220
0.1549,220
0.1549,220
0.1549,220
0.1549,221
0.1549,223
0.1549,226
0.1549,229
0.1549,231
0.1549,232
0.1549,233
0.1549,233
0.1549,233
0.1549,233
0.1549,232
0.1549,233
0.1549,233
0.1549,231
0.1549,230
0.1549,229
0.1549,227
0.1549,226
0.1549,228
0.1549,229
0.1709,226
0.1709,225
0.1709,223
0.1709,222
0.1709,220
0.1709,220
0.1709,219
0.1709,221
0.1709,221
0.1709,222
0.1709,221
0.1709,225
0.1709,230
0.1709,233
0.1709,232
0.1709,229
0.1709,226
0.1709,224
0.1709,222
0.1709,221
0.1709,220
0.1709,220
0.1709,219
0.1709,219
0.1709,219
0.1709,218
0.1709,218
0.1709,217
0.1709,217
0.1709,217
0.1709,217
0.1709,217
0.1709,217
0.1709,216
0.1709,217
0.1709,217
0.1709,217
0.1709,217
0.1709,217
0.1709,217
0.1709,217
0.1709,217
0.1709,218
0.1709,218
0.1709,218
0.1709,219
0.1709,219
0.1709,219
0.1709,220
0.1709,221
0.1709,223
0.1709,223
0.1709,225
0.1709,225
0.1709,225
0.1709,224
0.1709,224
0.1709,224
0.1709,223
0.1709,222
0.1709,223
0.1709,224
0.1709,225
0.1709,226
0.1709,225
0.1709,225
0.1709,226
0.1709,226
0.1709,227
0.1709,227
0.1709,226
0.1709,226
0.1849,225
0.1875,225
0.1875,224
0.1875,224
0.1875,224
0.1875,225
0.1875,226
0.1875,226
0.1875,227
0.2025,227
0.2025,228
0.2025,229
0.2025,231
0.2025,232
0.2025,231
0.2025,230
0.2025,230
0.2185,230
0.2185,231
0.2185,232
0.2185,233
0.2185,234
0.2185,235
0.2185,240
0.2185,244
0.2346,246
0.2346,248
0.2346,251
0.2346,255
0.2346,258
0.2346,260
0.2346,257
0.2346,254
0.2516,251
0.2516,250
0.2516,251
0.2516,251
0.2516,252
0.2516,253
0.2516,253
0.2516,253
0.2666,252
0.2666,251
0.2666,251
0.2666,251
0.2666,251
0.2666,251
0.2666,251
0.2824,250
0.2824,252
0.285,255
0.285,256
0.285,260
0.285,262
0.285,265
0.285,265
0.298,266
0.2993,264
0.2993,264
0.2993,263
0.2993,262
0.2993,264
0.2993,267
0.2993,267
0.3141,267
0.316,264
0.316,262
0.316,261
0.3222,261
0.3222,260
0.3222,262
0.3222,265
0.3222,267
0.3319,267
0.3327,266
0.3327,263
0.3327,259
0.3385,255
0.3405,251
0.3405,248
0.3405,246
0.3478,242
0.3478,240
0.3478,239
0.3478,239
0.3478,238
0.3478,236
0.3478,236
0.3478,237
0.3628,237
0.3628,235
0.3664,235
0.3664,235
0.3664,235
0.3664,235
0.376,235
0.3772,237
0.3789,237
0.3807,238
0.3839,238
0.385,238
0.3867,239
0.3867,239
0.3867,239
0.3867,240
0.3948,240
0.3948,241
0.3948,241
0.3948,241
0.3948,240
0.3948,240
0.3948,240
0.3948,241
0.4106,242
0.414,242
0.416,242
0.418,241
0.4201,241
0.4201,241
0.4201,242
0.4263,244
0.4263,246
0.4263,247
0.4263,248
0.4263,248
0.4263,248
0.4263,249
0.4263,251
0.4421,252
0.4421,252
0.4421,252
0.4421,253
0.4421,254
0.4421,254
0.4421,256
0.4421,257
0.4579,257
0.4579,258
0.4579,259
0.4579,259
0.4579,258
0.4579,257
0.4579,256
0.4579,256
0.4738,257
0.4738,261
0.4738,264
0.4738,265
0.4738,263
0.4738,262
0.485,260
0.485,257
0.4899,254
0.4899,252
0.4899,250
0.4899,248
0.4899,246
0.4899,245
0.4899,243
0.4899,243
0.5063,242
0.5068,243
0.5068,243
0.5068,244
0.5068,245
0.5068,246
0.5068,246
0.5068,246
0.5218,246
0.5218,247
0.5218,249
0.5218,251
0.5218,251
0.5218,250
0.5218,249
0.5218,249
0.5377,248
0.5377,249
0.5377,250
0.5377,250
0.5377,249
0.5377,248
0.5377,247
0.5377,247
0.5538,247
0.5538,248
0.5538,250
0.5538,251
0.5538,251
0.5538,250
0.5538,248
0.5538,246
0.5698,244
0.5698,243
0.5698,242
0.5698,242
0.5698,243
0.5698,243
0.5698,244
0.5698,244
0.5855,245
0.5869,246
0.5889,247
0.5909,248
0.5929,248
0.5929,247
0.5929,246
0.5995,245
0.6012,244
0.6012,244
0.6056,248
0.6076,251
0.6096,253
0.6096,253
0.6096,254
0.6096,254
0.6173,256
0.6173,258
0.6173,260
0.6173,262
0.6173,265
0.6173,267
0.6173,267
0.6173,266
0.6334,264
0.635,262
0.6366,260
0.6398,259
0.6414,260
0.6429,260
0.6445,261
0.6465,265
0.6486,268
0.6506,268
0.6526,267
0.6546,266
0.6566,268
0.6566,273
0.6566,276
0.6566,278
0.6646,278
0.6667,276
0.6667,274
0.6667,273
0.6667,273
0.6667,273
0.6667,274
0.6667,273
0.6805,271
0.6825,269
0.6854,267
0.6854,267
0.6854,268
0.6854,267
0.6854,266
0.6854,265
0.6963,265
0.6963,266
0.6963,265
0.6963,264
0.6963,265
0.6963,267
0.6963,270
0.6963,273
0.7124,274
0.7124,274
0.7124,273
0.7124,270
0.7124,267
0.7124,267
0.7124,267
0.7124,266
0.7284,266
0.7284,265
0.7284,266
0.7284,268
0.7284,268
0.7284,269
0.7284,270
0.7284,273
0.7446,275
0.7446,276
0.7446,277
0.7446,277
0.7446,277
0.7446,278
0.7446,280
0.7446,283
0.7618,286
0.7618,287
0.7618,287
0.7618,286
0.7618,284
0.7618,283
0.7618,284
0.7618,286
0.7765,287
0.7765,288
0.7765,289
0.7765,290
0.7854,289
0.7854,290
0.7854,290
0.7854,291
0.7926,292
0.7926,293
0.7926,294
0.7926,293
0.7926,291
0.7926,291
0.7926,292
0.7926,294
0.8101,295
0.8121,296
0.8141,295
0.8162,293
0.8162,290
0.8162,287
0.8162,284
0.8162,282
0.8262,282
0.8262,283
0.8282,285
0.8321,285
0.8332,286
0.8332,286
0.8332,286
0.8332,287
0.8416,289
0.843,293
0.843,298
0.8484,301
0.8484,301
0.8511,299
0.8531,298
0.8551,296
0.8571,297
0.8592,297
0.8612,297
0.8632,296
0.8652,296
0.8672,295
0.8692,293
0.8712,292
0.873,292
0.873,292
0.8769,292
0.8769,291
0.8817,290
0.8827,289
0.8854,289
0.8871,289
0.8887,290
0.8919,294
0.8919,296
0.8919,297
0.8919,294
0.8919,290
0.8919,286
0.8919,285
0.9052,286
0.9052,289
0.9085,291
0.9106,290
0.9126,288
0.9146,286
0.9166,285
0.9186,285
0.9204,286
0.9204,288
0.9204,289
0.9204,290
0.9204,290
0.9204,289
0.9204,287
0.9204,287
0.9366,286
0.9386,287
0.9406,289
0.9426,293
0.9446,297
0.9466,297
0.9487,296
0.9507,292
0.9524,289
0.9544,288
0.9564,289
0.9584,290
0.9604,292
0.9625,292
0.9645,292
0.9665,290
0.9682,288
0.9682,288
0.9682,290
0.9682,293
0.9682,295
0.9682,296
0.9682,296
0.9682,295
0.9855,292
0.9855,290
0.9855,292
0.9855,296
0.9855,300
0.9855,301
0.9855,298
0.9995,293
0.9995,288
0.9995,287
0.9995,290
0.9995,293
0.9995,294
0.9995,293
0.9995,289
1.0154,285
1.0171,282
1.0171,281
1.0171,282
1.0171,285
1.0171,288
1.0171,290
1.0171,290
1.0311,290
1.0311,289
1.0311,287
1.0311,284
1.0311,281
1.0311,279
1.0311,277
1.0311,277
1.0472,280
1.0472,284
1.0472,282
1.0472,279
1.0472,278
1.0472,278
1.0472,278
1.0472,279
1.063,281
1.063,279
1.063,275
1.063,271
1.063,268
1.063,268
1.063,269
1.063,271
1.0791,273
1.0804,274
1.0804,273
1.0857,272
1.0857,272
1.0857,273
1.0857,274
1.0857,276
1.0951,277
1.0968,280
1.0968,279
1.0968,275
1.0968,273
1.0968,271
1.0968,271
1.1095,272
1.1118,273
1.1118,273
1.1118,272
1.1118,273
1.1118,274
1.1118,276
1.1221,280
1.1221,283
1.1268,287
1.1268,287
1.1268,287
1.1268,287
1.1268,287
1.1268,286
1.1268,285
1.1419,288
1.1431,291
1.1448,293
1.1466,293
1.1499,291
1.1516,294
1.1516,297
1.1516,297
1.1516,299
1.1591,302
1.1591,305
1.1591,311
1.1591,311
1.1668,312
1.1688,315
1.1708,315
1.1728,316
1.1748,317
1.1769,316
1.1789,315
1.1809,314
1.1829,314
1.1858,313
1.1858,315
1.1858,316
1.1905,319
1.1925,321
1.1925,320
1.1925,318
1.1925,317
1.1925,316
1.1925,316
1.1925,317
1.2067,317
1.2067,318
1.2067,321
1.2067,324
1.2067,320
1.2067,316
1.2067,314
1.2067,315
1.2227,314
1.2227,307
1.2227,304
1.2227,301
1.2227,299
1.2227,296
1.2227,290
1.2227,286
1.2387,284
1.2387,285
1.2387,287
1.2387,290
1.2387,290
1.2387,289
1.2387,289
1.2387,287
1.2546,286
1.2546,288
1.2546,287
1.2546,286
1.2546,286
1.2546,281
1.2546,279
1.2546,276
1.2707,274
1.2707,272
1.2707,275
1.2707,278
1.2707,281
1.2707,284
1.2707,284
1.2859,283
1.2859,282
1.2859,281
1.2859,282
1.2859,284
1.2859,284
1.2859,283
1.2859,280
1.3016,276
1.3029,272
1.3029,270
1.3029,270
1.3029,271
1.3029,272
1.3029,272
1.3029,271
1.3178,269
1.3178,267
1.3178,266
1.3178,266
1.3178,268
1.3178,269
1.3178,270
1.3178,270
1.3337,269
1.3337,267
1.3337,267
1.3337,268
1.3337,270
1.3337,270
1.3337,270
1.3337,270
1.3498,269
1.3511,266
1.3531,265
1.3552,264
1.3552,264
1.3552,265
1.3552,265
1.3552,265
1.3653,264
1.3679,263
1.3679,262
1.3679,262
1.3737,261
1.3737,261
1.3737,261
1.3737,263
1.3819,263
1.3837,263
1.3837,262
1.3864,260
1.3896,258
1.3896,258
1.3896,257
1.3896,257
1.3983,259
1.3994,261
1.4011,262
1.4027,262
1.4044,261
1.4076,263
1.4093,263
1.4093,263
1.4093,263
1.4093,263
1.4093,263
1.4093,263
1.4219,262
1.4219,262
1.4219,262
1.4219,262
1.4219,260
1.4219,258
1.4219,258
1.4219,257
1.4377,257
1.4377,257
1.4377,255
1.443,255
1.445,254
1.445,253
1.445,253
1.445,254
1.4535,254
1.4535,257
1.4535,260
1.4535,263
1.4535,264
1.4535,265
1.4535,265
1.4535,265
1.4695,264
1.4695,262
1.4695,261
1.4695,261
1.4695,264
1.4695,266
1.4695,268
1.4695,269
1.4854,269
1.4865,269
1.4865,269
1.4865,270
1.4865,271
1.4865,271
1.4865,270
1.4865,268
1.5015,267
1.5015,267
1.5015,268
1.5015,270
1.5015,271
1.5111,271
1.5123,270
1.5123,268
1.5173,268
1.5173,268
1.5173,269
1.5173,269
1.5173,269
1.5173,270
1.5173,271
1.5173,272
1.534,271
1.534,269
1.534,267
1.534,267
1.534,267
1.534,268
1.534,269
1.534,272
1.549,274
1.549,274
1.549,273
1.549,271
1.549,270
1.549,270
1.549,269
1.549,270
1.5651,271
1.5651,271
1.5651,271
1.5651,270
1.5651,270
1.5651,270
1.5651,272
1.5651,274
1.5811,275
1.5811,275
1.5811,273
1.5866,271
1.5866,271
1.5866,273
1.5866,275
1.5866,276
1.5971,276
1.5971,277
1.5971,276
1.5971,275
1.5971,275
1.5971,274
1.5971,274
1.5971,273
1.6131,272
1.6131,272
1.6162,272
1.6162,271
1.6162,272
1.6223,273
1.625,274
1.625,274
1.6288,274
1.631,275
1.631,274
1.631,274
1.631,274
1.631,274
1.6402,274
1.6402,275
1.6447,275
1.6447,276
1.6447,276
1.6447,276
1.6447,275
1.6543,275
1.6563,274
1.6563,277
1.6605,279
1.6639,278
1.6649,275
1.6665,272
1.6696,269
1.6711,268
1.6727,269
1.6742,270
1.6763,270
1.6763,272
1.6763,270
1.6763,268
1.6763,267
1.6869,268
1.6869,268
1.6869,268
1.6921,269
1.6921,270
1.6921,270
1.6921,271
1.6921,271
1.6921,271
1.6921,273
1.708,275
1.708,276
1.708,276
1.708,276
1.708,274
1.708,272
1.708,272
1.708,274
1.724,278
1.724,281
1.724,281
1.724,281
1.724,280
1.724,279
1.724,279
1.724,279
1.74,281
1.74,284
1.74,285
1.74,285
1.74,285
1.74,285
1.74,284
1.74,285
1.7557,288
1.7557,292
1.7557,292
1.7557,292
1.7557,288
1.7557,284
1.7557,281
1.7557,281
1.7717,280
1.7717,278
1.7717,276
1.7717,274
1.7717,271
1.7717,269
1.7717,266
1.7717,264
1.7872,263
1.7884,264
1.7884,266
1.7884,268
1.7884,269
1.7884,271
1.7884,273
1.7884,271
1.8033,270
1.8033,269
1.8033,269
1.8033,273
1.8033,277
1.8033,282
1.8033,279
1.8033,277
1.8192,275
1.8192,274
1.8192,275
1.8192,279
1.8192,284
1.8192,286
1.8192,287
1.8192,288
1.835,285
1.835,281
1.835,279
1.835,278
1.835,279
1.835,282
1.835,286
1.835,285
1.8515,283
1.8535,282
1.8555,284
1.8575,289
1.8595,285
1.8615,281
1.8636,278
1.8656,275
1.8666,274
1.8686,273
1.8706,275
1.8726,279
1.8746,284
1.8766,287
1.8787,287
1.8807,286
1.884,286
1.884,287
1.8871,289
1.8871,291
1.8871,292
1.8871,295
1.8871,295
1.8983,294
1.8987,292
1.8987,290
1.8987,288
1.8987,288
1.9065,290
1.9065,292
1.9065,294
1.9065,296
1.9154,296
1.9154,296
1.9154,293
1.9154,289
1.924,287
1.9256,285
1.9274,281
1.9309,279
1.9309,277
1.9326,274
1.9326,272
1.9326,271
1.9326,270
1.9326,270
1.9326,271
1.9326,272
1.9474,273
1.9474,274
1.9474,275
1.9474,276
1.9474,278
1.9474,280
1.9474,282
1.9474,284
1.9625,286
1.9645,287
1.9666,287
1.9666,286
1.9666,284
1.9666,285
1.9666,286
1.9666,286
1.9785,283
1.9785,281
1.9785,279
1.9785,277
1.9876,275
1.9876,274
1.9876,275
1.9876,276
1.9945,278
1.9945,278
1.9945,277
1.9945,276
1.9945,274
1.9945,272
1.9945,273
1.9945,276
2.0106,279
2.0106,281
2.0106,282
2.0106,282
2.0106,282
2.0106,280
2.0106,279
2.0106,280
2.0266,282
2.0266,281
2.0266,279
2.0266,277
2.0266,275
2.0266,272
2.0266,272
2.0266,270
2.044,269
2.044,266
2.044,263
2.044,261
2.044,260
2.044,259
2.044,257
2.044,258
2.0587,260
2.0587,261
2.0587,261
2.0587,259
2.0587,257
2.0587,255
2.0587,254
2.0587,255
2.0747,255
2.0747,256
2.0747,256
2.0747,255
2.0747,254
2.0747,252
2.0877,251
2.0877,250
2.0906,250
2.0906,251
2.0906,252
2.0906,252
2.0906,253
2.0906,254
2.0906,254
2.0906,255
2.1067,256
2.1067,258
2.1067,259
2.1067,260
2.1067,261
2.1067,261
2.1067,261
2.1067,261
2.1229,261
2.1249,261
2.1269,264
2.1269,266
2.1315,268
2.1336,270
2.1336,271
2.1336,271
2.1393,271
2.1413,272
2.1413,273
2.1413,273
2.1413,273
2.1495,273
2.1495,272
2.1495,273
2.1554,273
2.1554,272
2.1554,271
2.1554,271
2.1554,270
2.1659,270
2.167,270
2.1687,269
2.172,269
2.1738,271
2.1755,273
2.1755,274
2.1755,273
2.1755,269
2.1755,268
2.186,266
2.1876,265
2.1876,265
2.1876,267
2.1876,277
2.1876,287
2.1876,291
2.1876,291
2.2017,288
2.2017,283
2.2017,283
2.2017,288
2.2017,288
2.2017,289
2.2017,291
2.2017,289
2.2179,286
2.2199,285
2.2199,282
2.2199,279
2.2199,277
2.2199,275
2.2199,274
2.2199,273
2.2337,273
2.2337,276
2.2337,278
2.2337,281
2.2337,284
2.2337,286
2.2337,288
2.2337,286
2.2497,284
2.2517,284
2.2537,285
2.2557,283
2.2577,280
2.2597,279
2.2617,277
2.2637,274
2.2655,270
2.2655,268
2.2655,266
2.2655,266
2.2655,267
2.2655,268
2.2655,268
2.2655,269
2.2813,269
2.2839,270
2.2839,272
2.2879,272
2.2879,272
2.2879,273
2.2879,275
2.2879,277
2.298,279
2.298,282
2.298,286
2.298,288
2.298,287
2.298,286
2.298,284
2.298,285
2.3133,286
2.3133,286
2.3133,286
2.3133,286
2.3133,287
2.3133,288
2.3133,289
2.3133,289
2.3292,291
2.3308,291
2.3308,290
2.3308,289
2.3308,288
2.3308,291
2.3308,295
2.3308,300
2.3453,299
2.3453,297
2.3453,294
2.3453,292
2.3453,291
2.3453,292
2.3453,294
2.3453,296
2.3614,297
2.3614,296
2.3614,295
2.3614,293
2.3614,292
2.3614,292
2.3614,295
2.3614,298
2.3772,300
2.3772,299
2.3772,298
2.3772,297
2.3772,298
2.3772,300
2.3882,304
2.3882,307
2.3931,309
2.3931,311
2.3931,312
2.3931,310
2.3931,307
2.3931,302
2.3931,299
2.3931,299
2.41,300
2.41,300
2.41,300
2.4153,300
2.4171,300
2.4171,300
2.4171,300
2.4171,300
2.4253,300
2.4253,301
2.4253,302
2.4319,304
2.4336,304
2.4354,302
2.4371,302
2.4388,303
2.4406,305
2.4406,307
2.4406,304
2.4406,301
2.4406,298
2.4406,296
2.4406,295
2.4406,295
2.4568,296
2.4588,299
2.4609,302
2.4629,302
2.4649,300
2.4669,297
2.4689,297
2.4719,298
2.4719,299
2.4719,300
2.4719,299
2.4719,298
2.4719,297
2.4719,295
2.4719,294
2.488,293
2.4886,293
2.4886,294
2.4886,295
2.4886,297
2.4886,299
2.4886,299
2.4886,297
2.504,296
2.506,294
2.506,293
2.506,293
2.506,299
2.506,303
2.506,303
2.506,299
2.5198,297
2.5218,300
2.5218,301
2.5218,303
2.5218,305
2.5218,305
2.5218,303
2.5218,301
2.5359,300
2.5359,300
2.5359,305
2.5359,310
2.5359,313
2.5359,318
2.5359,319
2.5359,311
2.552,306
2.5533,305
2.555,305
2.555,305
2.559,307
2.5614,307
2.5614,307
2.5653,307
2.5673,307
2.5694,306
2.5694,307
2.5726,315
2.5746,320
2.5766,321
2.5786,317
2.5806,314
2.5826,310
2.5849,308
2.5869,307
2.5889,310
2.5909,314
2.5929,315
2.5949,313
2.597,308
2.5987,305
2.6007,304
2.6027,306
2.6047,309
2.6068,312
2.6088,315
2.6108,317
2.6128,317
2.6146,317
2.6146,314
2.6146,315
2.6146,321
2.6146,327
2.6146,330
2.6146,329
2.6146,324
2.6321,317
2.6321,312
2.6321,308
2.6321,305
2.6321,306
2.6321,312
2.6321,315
2.6321,316
2.6481,315
2.6481,311
2.6481,304
2.6481,300
2.6481,301
2.6481,306
2.6481,311
2.6481,313
2.6626,314
2.6647,313
2.6667,311
2.6687,310
2.6707,311
2.6727,312
2.6748,314
2.6768,313
2.6795,314
2.6795,313
2.6824,310
2.6824,307
2.6824,304
2.6892,301
2.6892,294
2.6892,287
2.6943,281
2.6943,275
2.6943,266
2.6943,259
2.6943,252
2.7055,245
2.7081,240
2.7097,236
2.7113,234
2.713,232
2.7146,230
2.7163,229
2.7163,229
2.7163,231
2.7163,233
2.7254,238
2.7254,247
2.7301,267
2.7301,278
2.7301,284
2.7301,292
2.7301,303
2.7301,314
2.7413,324
2.7413,323
2.7413,323
2.7413,321
2.7413,318
2.7413,318
2.7413,317
2.7413,318
2.7571,323
2.7598,327
2.7618,325
2.7638,320
2.7659,313
2.7679,310
2.7699,313
2.7719,320
2.7729,330
2.7729,333
2.7729,330
2.7729,324
2.7729,319
2.7835,317
2.7855,315
2.7875,315
2.7896,315
2.7896,315
2.7896,315
2.7896,313
2.7896,310
2.7896,308
2.7896,307
2.7896,305
2.8052,303
2.8052,305
2.8052,307
2.8052,308
2.8052,309
2.8052,311
2.8052,314
2.8052,315
2.821,315
2.821,315
2.821,317
2.821,318
2.821,317
2.821,314
2.821,311
2.821,308
2.838,306
2.838,306
2.838,308
2.838,313
2.838,315
2.838,314
2.838,313
2.838,311
2.8532,311
2.8532,313
2.8532,316
2.8532,319
2.8532,319
2.8532,319
2.8655,319
2.8655,318
2.8689,315
2.8709,312
2.8709,312
2.8709,313
2.8709,316
2.8709,318
2.8816,318
2.8828,315
2.8846,311
2.8846,310
2.8895,314
2.8895,318
2.8895,319
2.895,318
2.897,312
2.8991,308
2.9006,308
2.9006,309
2.9006,312
2.9006,317
2.9083,321
2.9083,324
2.9083,324
2.9083,323
2.9181,321
2.9199,316
2.9199,311
2.9199,311
2.9199,312
2.9199,317
2.9199,319
2.9199,318
2.9323,318
2.9361,319
2.9372,319
2.9389,321
2.9406,325
2.9439,325
2.9456,321
2.9472,315
2.9501,310
2.9518,307
2.9518,306
2.9518,308
2.9518,312
2.9518,314
2.9518,316
2.9626,316
2.9655,312
2.9655,310
2.9655,313
2.9655,311
2.9727,312
2.9727,313
2.9727,313
2.9795,310
2.9817,307
2.9817,304
2.9817,302
2.9817,303
2.9896,306
2.9896,310
2.9896,313
2.9896,313
2.9969,311
2.9969,310
2.9969,309
2.9969,309
2.9969,310
2.9969,313
2.9969,315
2.9969,316
3.0137,314
3.0137,312
3.0137,309
3.0137,308
3.0137,308
3.0137,310
3.0137,311
3.0137,310
3.0286,306
3.0306,301
3.0327,297
3.0347,293
3.0367,294
3.0387,297
3.0387,303
3.0387,306
3.0445,304
3.0445,302
3.0445,298
3.0445,295
3.0445,292
3.0445,291
3.0445,291
3.0445,293
3.0618,296
3.0638,300
3.0663,303
3.0679,305
3.0696,301
3.0712,298
3.0728,295
3.076,292
3.0777,288
3.0793,284
3.0793,279
3.0793,275
3.0793,271
3.0793,264
3.0896,259
3.0917,255
3.0917,254
3.0917,253
3.0962,253
3.0982,252
3.1002,250
3.1022,251
3.1043,252
3.1078,255
3.1078,258
3.1078,260
3.1078,262
3.1078,263
3.1078,263
3.1078,264
3.1078,263
3.1237,263
3.1237,265
3.1274,268
3.1274,269
3.1274,270
3.1327,270
3.1347,268
3.1367,266
3.1397,265
3.1418,266
3.1418,268
3.1418,272
3.1418,275
3.1495,280
3.1495,282
3.1495,282
3.1554,282
3.1554,282
3.1554,280
3.1554,279
3.1554,276
3.1656,271
3.1656,266
3.1656,261
3.1712,256
3.1712,251
3.1712,248
3.1712,246
3.1712,246
3.1712,247
3.1712,252
3.1712,258
3.187,267
3.1898,271
3.1918,277
3.1938,284
3.1958,283
3.1978,283
3.1998,281
3.2019,278
3.204,275
3.2062,274
3.207,273
3.207,276
3.207,281
3.207,284
3.207,285
3.207,283
3.219,283
3.219,281
3.219,279
3.219,277
3.219,275
3.2294,272
3.2314,271
3.2335,269
3.235,267
3.235,265
3.235,263
3.235,264
3.2435,265
3.2455,264
3.2475,261
3.2495,258
3.2511,255
3.2531,252
3.2551,251
3.2571,251
3.2591,254
3.2612,259
3.2632,264
3.2652,265
3.267,265
3.267,263
3.267,261
3.267,260
3.267,261
3.267,262
3.267,264
3.267,264
3.2828,263
3.2828,261
3.2828,258
3.2898,257
3.2898,255
3.2898,253
3.2898,252
3.2898,253
3.299,254
3.3015,258
3.3036,262
3.3056,265
3.3076,269
3.3096,275
3.3116,276
3.3137,286
3.316,285
3.316,282
3.316,279
3.316,277
3.316,284
3.316,285
3.316,283
3.316,286
3.3305,287
3.333,284
3.335,282
3.337,282
3.339,281
3.3411,282
3.3431,284
3.3451,284
3.3466,287
3.3486,288
3.3513,289
3.3533,290
3.3554,289
3.3554,288
3.3554,292
3.3554,295
3.3624,296
3.366,295
3.368,295
3.37,295
3.372,293
3.372,292
3.372,293
3.372,293
3.3784,293
3.3805,291
3.3825,289
3.3845,287
3.3865,285
3.3898,285
3.3898,282
3.3898,281
3.3949,283
3.3969,284
3.399,284
3.401,282
3.403,282
3.403,281
3.403,277
3.4094,279
3.4114,282
3.4135,284
3.4155,286
3.4155,290
3.4184,292
3.4204,296
3.4224,300
3.4254,308
3.4254,312
3.4254,313
3.4254,310
3.4254,309
3.4254,311
3.4254,319
3.4254,330
3.4414,338
3.4414,339
3.4414,329
3.4414,320
3.4414,313
3.4414,311
3.4414,312
3.4414,315
3.4575,316
3.4586,316
3.4586,316
3.4586,316
3.4652,317
3.4673,318
3.4693,317
3.4713,315
3.4733,315
3.4748,316
3.4772,318
3.4792,318
3.4819,318
3.4825,316
3.4825,315
3.4825,314
3.4898,317
3.4898,322
3.4898,324
3.4898,323
3.498,320
3.4998,318
3.5018,319
3.5038,322
3.5059,324
3.5079,330
3.5099,336
3.5119,333
3.5139,325
3.5139,318
3.5139,316
3.5139,316
3.5139,320
3.5139,327
3.5139,331
3.5139,330
3.5298,324
3.5309,317
3.5329,311
3.5349,309
3.537,308
3.539,308
3.541,312
3.543,317
3.545,317
3.545,315
3.545,312
3.545,310
3.545,307
3.545,306
3.545,306
3.545,308
3.5608,309
3.5608,310
3.5608,308
3.5608,308
3.5608,309
3.5608,309
3.5608,310
3.5608,312
3.5769,311
3.5769,309
3.5769,305
3.5769,302
3.5769,300
3.5769,297
3.59,297
3.59,299
3.5926,299
3.5926,292
3.5926,286
3.5926,278
3.5926,272
3.5926,267
3.5926,262
3.5926,260
3.6086,259
3.6086,258
3.6086,255
3.6086,254
3.6086,253
3.6086,254
3.6086,253
3.6086,251
3.6245,249
3.6245,248
3.6245,245
3.6245,243
3.6245,242
3.6245,240
3.6245,236
3.6399,235
3.6415,235
3.6431,233
3.6447,234
3.648,235
3.6495,235
3.6495,235
3.6495,236
3.6556,236
3.6556,238
3.6556,239
3.6556,241
3.6556,242
3.6646,244
3.6666,248
3.6686,249
3.6717,250
3.6737,250
3.6737,252
3.6772,254
3.6793,258
3.6813,261
3.6833,263
3.6833,266
3.6873,268
3.6901,271
3.6901,274
3.6928,275
3.6948,275
3.6969,274
3.6989,275
3.7009,278
3.703,280
3.705,281
3.707,284
3.7091,286
3.7111,288
3.7131,285
3.7151,282
3.7172,279
3.7189,277
3.7189,276
3.7189,276
3.7189,274
3.7269,271
3.729,271
3.731,275
3.733,274
3.7348,274
3.7348,273
3.7348,274
3.7348,276
3.7348,280
3.7348,282
3.7348,283
3.7348,281
3.7505,279
3.7526,278
3.7526,277
3.7526,278
3.7526,279
3.7526,282
3.7636,282
3.7647,284
3.7664,286
3.7685,287
3.7705,286
3.7725,286
3.7745,285
3.7766,284
3.7786,282
3.7806,282
3.7824,281
3.7844,281
3.7864,280
3.79,279
3.792,280
3.794,281
3.796,283
3.798,285
3.8001,284
3.8021,282
3.8041,281
3.8061,283
3.8081,288
3.8081,294
3.8122,292
3.8139,291
3.8159,290
3.818,288
3.82,285
3.822,283
3.824,284
3.826,285
3.828,287
3.8298,288
3.8318,286
3.8338,283
3.8358,281
3.8378,281
3.8399,280
3.8419,281
3.8439,282
3.8456,282
3.8456,281
3.8456,278
3.8513,277
3.8533,276
3.8553,276
3.8574,277
3.8594,279
3.8614,280
3.8634,280
3.8654,278
3.8675,274
3.8695,271
3.8715,268
3.8715,268
3.8715,271
3.8782,272
3.8782,275
3.8819,278
3.8819,279
3.8819,281
3.8819,284
3.8819,286
3.8901,290
3.893,294
3.8946,296
3.8946,298
3.8946,298
3.8946,298
3.8946,299
3.8946,301
3.8946,303
3.913,306
3.913,308
3.915,309
3.915,308
3.915,307
3.915,306
3.915,305
3.915,304
3.9243,304
3.9264,305
3.9284,305
3.9304,304
3.9324,304
3.9344,303
3.9344,304
3.94,303
3.94,304
3.94,308
3.94,313
3.94,310
3.94,306
3.94,303
3.94,303
3.9559,305
3.9559,312
3.9559,316
3.9559,315
3.9559,315
3.9559,312
3.9559,310
3.9559,312
3.9716,314
3.9716,316
3.9716,320
3.9716,321
3.9716,320
3.9716,317
3.9716,315
3.9716,313
3.9878,313
3.9878,313
3.9903,313
3.9938,315
3.9938,315
3.9938,314
3.9938,311
3.9938,309
4.0038,308
4.005,307
4.005,308
4.005,312
4.005,315
4.005,316
4.0151,315
4.0151,315
4.0196,317
4.0208,319
4.0237,318
4.0237,322
4.0237,323
4.0237,324
4.032,323
4.0328,322
4.0328,321
4.0328,324
4.0328,326
4.0328,329
4.0433,334
4.0453,336
4.0473,336
4.0494,335
4.0514,334
4.0514,331
4.0514,328
4.0514,328
4.0514,329
4.0514,330
4.0632,328
4.0632,323
4.0632,320
4.0632,318
4.0632,321
4.0632,328
4.0632,334
4.0632,338
4.0792,334
4.0792,328
4.0839,323
4.0855,321
4.0872,324
4.0888,330
4.092,333
4.0936,334
4.0953,329
4.0953,323
4.0953,318
4.0953,318
4.0953,319
4.0953,324
4.0953,334
4.0953,342
4.1113,343
4.1113,338
4.1156,333
4.1176,328
4.1196,327
4.1196,328
4.1196,332
4.1196,336
4.1271,336
4.1271,333
4.1271,329
4.1325,324
4.1345,322
4.1365,324
4.1365,330
4.1365,339
4.143,342
4.1445,339
4.1445,330
4.1445,324
4.1445,320
4.1445,320
4.1552,324
4.1573,331
4.159,336
4.1611,335
4.1631,329
4.1631,325
4.1631,325
4.1631,328
4.1631,330
4.1631,334
4.175,336
4.175,334
4.175,331
4.175,327
4.175,326
4.175,325
4.175,325
4.175,328
4.1905,335
4.1905,338
4.1905,337
4.1905,334
4.1905,331
4.1905,328
4.1905,328
4.1905,331
4.2076,335
4.2076,337
4.2076,337
4.2076,336
4.2076,334
4.2076,333
4.2076,335
4.2221,338
4.2221,343
4.2221,347
4.2221,348
4.2221,344
4.2221,339
4.2221,335
4.2221,330
4.2378,330
4.2378,334
4.2378,339
4.2378,341
4.2456,340
4.2476,336
4.2496,333
4.2496,331
4.2539,330
4.2539,331
4.2539,336
4.2539,340
4.2539,339
4.2539,334
4.2539,328
4.2539,327
4.2697,328
4.2697,330
4.2697,333
4.2697,338
4.2697,342
4.2697,341
4.2697,337
4.2697,335
4.2857,335
4.2857,336
4.2857,337
4.2907,339
4.2907,339
4.2907,335
4.2907,331
4.2907,331
4.3016,333
4.3016,333
4.3016,335
4.3016,338
4.3016,337
4.3016,336
4.3016,334
4.3016,333
4.3173,334
4.3173,332
4.3173,330
4.3173,330
4.3173,334
4.3173,339
4.3173,342
4.3173,341
4.3333,338
4.3333,336
4.3333,335
4.3333,335
4.3333,335
4.3333,335
4.3333,335
4.3333,332
4.3491,328
4.3491,327
4.3491,326
4.3491,330
4.3491,336
4.3491,341
4.3491,342
4.3491,337
4.3649,331
4.3649,326
4.3649,324
4.3649,324
4.3649,331
4.3649,338
4.3649,338
4.3789,334
4.3807,326
4.3829,320
4.3849,318
4.3869,321
4.3889,328
4.3909,336
4.393,340
4.395,335
4.3967,329
4.3988,326
4.4008,325
4.4028,325
4.4048,325
4.4069,329
4.4089,334
4.4109,333
4.4127,330
4.4147,327
4.4167,323
4.4167,320
4.4167,320
4.4167,325
4.4167,331
4.4167,335
4.4285,331
4.4285,324
4.4285,321
4.4285,320
4.4285,322
4.4285,325
4.4285,328
4.4285,330
4.4442,330
4.4463,330
4.4483,329
4.4503,326
4.4523,324
4.4543,323
4.4564,324
4.4584,327
4.4601,328
4.4632,327
4.4652,321
4.4672,319
4.4672,317
4.4701,319
4.4721,324
4.4759,333
4.4759,342
4.4798,341
4.4798,331
4.4798,323
4.4798,317
4.4798,316
4.4798,317
4.491,322
4.4942,329
4.4956,333
4.4968,333
4.4988,329
4.5008,321
4.5028,316
4.5048,317
4.5069,325
4.5092,332
4.5112,334
4.5132,328
4.5153,323
4.5173,320
4.5193,319
4.5213,322
4.5228,326
4.5228,329
4.5267,331
4.5287,331
4.5308,329
4.5335,327
4.5356,323
4.5376,321
4.5402,324
4.5402,331
4.5422,335
4.5422,334
4.5422,333
4.5485,331
4.5485,328
4.5485,324
4.5485,325
4.5567,331
4.5567,338
4.5567,340
4.5567,334
4.565,325
4.565,319
4.565,318
4.565,319
4.565,323
4.565,331
4.565,337
4.565,335
4.5811,327
4.583,322
4.583,324
4.583,328
4.583,333
4.5913,337
4.5933,338
4.5953,335
4.5971,330
4.5971,328
4.5971,326
4.5971,326
4.5971,330
4.5971,336
4.5971,341
4.5971,340
4.6132,335
4.6132,328
4.6132,324
4.6132,325
4.6132,329
4.6132,336
4.6132,341
4.6276,343
4.6291,341
4.6311,336
4.6332,332
4.6352,329
4.6352,325
4.6352,327
4.6352,333
4.6352,337
4.6453,338
4.6473,336
4.6493,334
4.6513,332
4.6533,329
4.6554,330
4.6574,337
4.6594,343
4.6612,342
4.6612,337
4.6612,332
4.6672,328
4.6692,327
4.6712,332
4.6733,340
4.6753,346
4.6771,341
4.6771,330
4.6771,321
4.6771,318
4.6771,318
4.6771,319
4.6771,326
4.6913,333
4.6938,340
4.6943,339
4.6964,333
4.6984,328
4.7011,326
4.7031,329
4.7051,337
4.7071,347
4.7089,348
4.7089,341
4.7089,335
4.7147,335
4.7167,334
4.7187,333
4.7207,335
4.7228,341
4.7248,347
4.7248,349
4.7248,343
4.7248,336
4.7248,333
4.7248,332
4.7248,331
4.7248,333
4.7409,339
4.7409,344
4.7409,342
4.7409,335
4.7409,329
4.7409,324
4.7409,322
4.7409,326
4.757,335
4.759,342
4.761,341
4.763,335
4.765,328
4.765,323
4.765,322
4.765,325
4.773,329
4.775,333
4.775,337
4.775,339
4.775,338
4.775,333
4.786,330
4.786,330
4.7888,332
4.7917,335
4.7917,336
4.7917,335
4.7917,332
4.7917,329
4.7917,328
4.8023,328
4.8044,328
4.8044,331
4.8044,337
4.8044,343
4.8044,343
4.8044,340
4.8044,339
4.8044,336
4.8202,335
4.8231,338
4.8251,343
4.8272,340
4.8292,329
4.8312,319
4.8332,315
4.8353,315
4.8363,317
4.8363,323
4.8417,329
4.8437,333
4.8458,334
4.8478,333
4.8478,331
4.8516,327
4.8536,324
4.8556,323
4.8576,326
4.8597,332
4.8617,335
4.8637,331
4.8657,326
4.8675,325
4.8675,328
4.8675,332
4.8739,334
4.8759,333
4.8759,329
4.8759,323
4.8759,319
4.8834,321
4.8834,326
4.8878,332
4.8898,336
4.8918,339
4.893,339
4.895,335
4.8971,327
4.8991,322
4.8991,320
4.8991,322
4.8991,326
4.8991,334
4.8991,340
4.8991,337
4.8991,328
4.9151,319
4.9151,318
4.9151,320
4.9151,324
4.9151,334
4.9247,341
4.9267,339
4.9287,334
4.931,330
4.9335,327
4.9351,323
4.9367,319
4.9398,319
4.9413,322
4.9429,327
4.9429,329
4.9469,328
4.9469,326
4.9469,325
4.9469,324
4.9557,325
4.9578,331
4.9598,338
4.9618,340
4.9639,337
4.9659,332
4.968,328
4.97,324
4.97,326
4.972,331
4.976,335
4.978,331
4.978,324
4.978,317
4.978,315
4.978,314
4.978,315
4.978,320
4.9919,327
4.9938,333
4.9938,333
4.9938,330
4.9938,328
4.9938,324
4.9938,319
4.9938,319
4.9938,322
5.0095,326
5.0095,331
5.0095,333
5.0095,330
5.0095,326
5.0095,321
5.0221,319
5.0241,319
5.0252,322
5.0272,324
5.0292,323
5.0312,321
5.0312,318
5.0354,315
5.0374,314
5.0394,318
5.0412,322
5.0432,324
5.0452,322
5.0472,320
5.0493,316
5.0513,313
5.0533,313
5.0553,317
5.0571,324
5.0584,329
5.0584,332
5.0584,331
5.0584,325
5.0584,316
5.0584,310
5.0584,309
5.074,316
5.0745,324
5.0765,329
5.0785,329
5.0785,325
5.0829,318
5.0849,315
5.0869,312
5.089,313
5.092,317
5.092,322
5.092,323
5.092,319
5.0996,316
5.1016,316
5.1037,318
5.1057,324
5.1067,332
5.1067,340
5.1067,341
5.1067,337
5.1067,330
5.1067,326
5.1067,326
5.1219,329
5.1219,334
5.1219,338
5.1219,339
5.1288,336
5.1309,334
5.1329,332
5.1329,330
5.1375,328
5.1375,329
5.1375,332
5.1375,337
5.1375,337
5.1375,333
5.1486,330
5.1506,330
5.1537,328
5.1537,328
5.1537,330
5.1537,335
5.1537,338
5.1625,336
5.1645,333
5.1645,332
5.1695,332
5.1695,332
5.1695,333
5.1695,338
5.1695,340
5.1695,337
5.1695,331
5.1695,325
5.1853,325
5.1853,329
5.1853,335
5.192,339
5.192,336
5.192,329
5.192,323
5.192,318
5.201,315
5.2035,314
5.2056,317
5.2076,324
5.2096,331
5.2096,336
5.2096,338
5.2096,337
5.2167,333
5.2187,329
5.2187,329
5.2187,334
5.2255,342
5.2276,344
5.2296,338
5.2316,328
5.2326,319
5.2346,312
5.2346,307
5.2346,306
5.2346,310
5.2346,318
5.2346,325
5.2346,327
5.2485,324
5.2485,321
5.2485,317
5.2485,316
5.2485,317
5.2485,321
5.2485,323
5.2625,323
5.2643,326
5.2663,327
5.2683,325
5.2703,322
5.2723,323
5.2743,325
5.2764,327
5.2784,325
5.2822,322
5.2833,322
5.2863,324
5.2879,327
5.2895,331
5.2911,333
5.2922,331
5.2959,326
5.2959,318
5.2959,312
5.2959,310
5.2959,308
5.3051,312
5.3051,318
5.3051,323
5.3117,326
5.3117,328
5.3117,331
5.3117,331
5.3117,326
5.3117,319
5.3117,316
5.3117,320
5.3274,321
5.3274,322
5.3274,323
5.3274,321
5.3274,317
5.3274,317
5.3384,320
5.3404,325
5.3435,331
5.3455,331
5.3475,324
5.3475,316
5.3475,311
5.3475,309
5.3475,312
5.3475,318
5.3594,324
5.3594,328
5.3594,329
5.3594,327
5.3594,327
5.3594,326
5.3594,326
5.3594,325
5.3755,324
5.3755,325
5.3755,324
5.3755,322
5.3755,324
5.3755,326
5.3755,325
5.3755,325
5.3916,327
5.3922,328
5.3922,325
5.3922,320
5.3922,317
5.3922,311
5.3922,307
5.3922,304
5.408,309
5.4091,313
5.4106,315
5.4106,319
5.4106,321
5.4106,319
5.4106,316
5.4106,313
5.4236,312
5.4236,314
5.4236,317
5.4236,320
5.4236,319
5.433,318
5.435,320
5.4371,326
5.4391,336
5.4391,343
5.4391,343
5.4391,337
5.4391,328
5.4391,320
5.4391,315
5.4391,316
5.4552,320
5.4552,323
5.4585,324
5.4606,324
5.4626,324
5.4646,322
5.4666,321
5.4686,316
5.4707,314
5.4707,315
5.4707,321
5.4707,325
5.4707,324
5.4707,320
5.4707,318
5.4707,319
5.4881,323
5.4892,326
5.4921,330
5.4927,332
5.4962,328
5.4979,320
5.4979,313
5.4979,308
5.5028,307
5.5028,311
5.5028,316
5.5028,321
5.5028,324
5.5028,324
5.5028,321
5.5028,319
5.5186,319
5.5213,319
5.5233,319
5.5254,322
5.5274,322
5.5294,322
5.5314,320
5.5335,317
5.5345,314
5.5365,313
5.5365,315
5.5365,319
5.5365,324
5.5365,326
5.5365,324
5.5502,323
5.5502,324
5.5502,322
5.5502,319
5.5502,319
5.5502,322
5.5502,324
5.5502,321
5.566,321
5.566,321
5.566,318
5.566,315
5.566,318
5.566,323
5.566,326
5.566,327
5.5818,325
5.5818,323
5.5818,322
5.5818,321
5.5818,320
5.592,321
5.592,322
5.592,322
5.5976,322
5.5994,322
5.5994,319
5.5994,315
5.5994,313
5.5994,318
5.5994,325
5.5994,328
5.6136,330
5.6153,329
5.6153,327
5.6153,324
5.6218,320
5.6218,319
5.6218,321
5.6218,325
5.6299,329
5.6317,331
5.6337,329
5.6357,324
5.6377,321
5.6398,323
5.6418,327
5.6438,330
5.6458,330
5.6458,329
5.6458,326
5.6458,320
5.6458,316
5.6458,315
5.6458,319
5.6458,325
5.6619,331
5.6619,334
5.6619,332
5.6619,328
5.6619,322
5.6619,319
5.6619,321
5.6619,327
5.678,333
5.6801,336
5.6821,333
5.6841,327
5.6861,322
5.6861,318
5.6861,317
5.692,317
5.6938,318
5.6938,320
5.6938,320
5.6938,318
5.6938,317
5.6938,318
5.6938,322
5.6938,327
5.7097,327
5.7097,324
5.7097,321
5.7097,319
5.7097,316
5.7097,314
5.7097,313
5.7097,314
5.7258,320
5.7258,328
5.7258,331
5.7258,328
5.7258,323
5.7359,317
5.737,311
5.7387,311
5.7419,315
5.7436,320
5.7449,323
5.7465,325
5.7465,327
5.7465,332
5.7465,333
5.7465,330
5.7579,325
5.7599,321
5.762,318
5.764,318
5.766,320
5.768,323
5.768,324
5.768,326
5.7738,327
5.7763,327
5.7763,326
5.7763,321
5.7763,316
5.7763,312
5.7763,311
5.7763,310
5.7899,311
5.7919,315
5.7919,319
5.7919,320
5.7919,320
5.7919,323
5.7919,324
5.7919,325
5.8056,326
5.8056,326
5.8056,326
5.8125,327
5.8125,325
5.8125,323
5.8125,322
5.8125,322
5.822,322
5.822,325
5.822,331
5.822,336
5.822,332
5.822,323
5.822,313
5.822,309
5.8371,312
5.8371,319
5.8411,326
5.8411,330
5.8411,329
5.8411,324
5.8411,319
5.8411,317
5.8539,317
5.8539,319
5.8539,321
5.8539,324
5.8539,327
5.8539,329
5.8539,329
5.8539,325
5.8689,321
5.8689,319
5.8689,320
5.8689,322
5.8689,326
5.8689,326
5.8689,324
5.8689,322
5.8847,319
5.8875,316
5.8895,315
5.8921,318
5.8941,324
5.8961,327
5.8981,325
5.9002,318
5.9022,310
5.9042,308
5.9062,314
5.9062,325
5.9062,337
5.9062,342
5.9062,338
5.9153,328
5.9153,318
5.9153,311
5.9153,308
5.9153,311
5.9153,319
5.9153,327
5.9153,330
5.9313,329
5.9313,327
5.9313,326
5.9313,326
5.9313,331
5.9313,338
5.9313,340
5.9313,337
5.9474,333
5.9474,330
5.9474,327
5.9534,326
5.9534,327
5.9534,332
5.9534,340
5.9616,339
5.9633,333
5.9653,325
5.9673,317
5.9694,314
5.9714,315
5.9734,320
5.9754,330
5.9774,338
5.9792,342
5.9812,340
5.9833,335
5.9853,331
5.9873,326
5.9893,326
5.9921,332
5.9921,337
5.9949,337
5.9974,332
6.0,327
6.0,325
6.0,321
6.0,318
6.0,318
6.0,321
6.0107,325
6.0107,327
6.0107,326
6.0107,325
6.0107,322
6.0107,317
6.0107,316
6.0107,320
6.028,326
6.0295,330
6.0311,333
6.0327,332
6.0358,329
6.0374,326
6.0374,326
6.0374,329
6.0422,332
6.0422,332
6.0422,331
6.0422,329
6.0422,326
6.0422,324
6.0422,323
6.0578,325
6.0578,330
6.0578,331
6.0578,329
6.0578,327
6.0578,324
6.0578,320
6.0578,316
6.0735,318
6.0747,327
6.0747,337
6.0747,342
6.0747,339
6.0747,331
6.0747,325
6.0747,321
6.0893,321
6.0893,328
6.0924,334
6.0924,338
6.0924,339
6.0924,335
6.0924,330
6.0924,327
6.105,327
6.105,330
6.105,334
6.105,335
6.105,333
6.105,328
6.1171,324
6.1171,324
6.1222,326
6.123,330
6.123,335
6.123,337
6.123,334
6.132,327
6.132,320
6.132,319
6.132,323
6.132,329
6.1405,335
6.1405,339
6.1405,337
6.1468,330
6.1498,323
6.1521,317
6.1521,315
6.1521,318
6.1521,322
6.1521,324
6.1521,324
6.1521,324
6.1644,322
6.1644,319
6.1644,315
6.1644,313
6.1644,314
6.1644,320
6.1644,329
6.1801,332
6.1801,330
6.1801,326
6.1801,322
6.1801,319
6.1801,322
6.1801,328
6.1925,332
6.1959,333
6.1959,333
6.1959,329
6.1959,325
6.1959,320
6.1959,320
6.1959,325
6.1959,334
6.212,338
6.212,336
6.212,331
6.212,323
6.212,317
6.222,316
6.224,320
6.2261,330
6.2278,340
6.2278,344
6.2313,341
6.2313,330
6.2344,323
6.2364,323
6.2384,329
6.2405,337
6.2435,342
6.2455,339
6.2476,332
6.2496,326
6.2516,323
6.2536,325
6.2556,330
6.2577,335
6.2594,337
6.2614,335
6.2635,328
6.2655,323
6.2675,319
6.2695,314
6.2715,312
6.2736,317
6.2753,324
6.2774,331
6.2794,335
6.2814,334
6.2834,327
6.2854,320
6.2874,316
6.2895,320
6.2912,331
6.2927,342
6.2947,345
6.2947,342
6.2947,336
6.2947,331
6.2947,329
6.2947,331
6.3073,338
6.3073,344
6.3073,344
6.3073,338
6.3073,332
6.3073,327
6.3073,325
6.3073,326
6.3231,328
6.3231,334
6.3231,336
6.3231,335
6.3231,333
6.3231,329
6.3231,327
6.3231,327
6.339,328
6.339,330
6.339,333
6.339,331
6.339,327
6.339,326
6.339,327
6.339,330
6.3547,331
6.3547,333
6.3586,333
6.3606,332
6.3626,331
6.3647,327
6.3667,324
6.3687,326
6.3705,331
6.3705,334
6.3705,335
6.3705,335
6.3705,332
6.3705,328
6.3705,325
6.3861,327
6.3861,327
6.3861,327
6.3912,329
6.3931,331
6.3931,333
6.3931,334
6.3931,333
6.4015,330
6.4015,326
6.4015,327
6.4015,330
6.4015,333
6.4015,333
6.4015,330
6.4015,327
6.4171,325
6.4171,323
6.4171,321
6.4171,322
6.4171,326
6.4171,332
6.4171,335
6.4171,332
6.4331,328
6.4351,326
6.4351,323
6.4351,322
6.4351,321
6.4351,321
6.4351,319
6.4351,317
6.4492,313
6.4492,312
6.4492,312
6.4492,314
6.4492,316
6.4492,320
6.462,324
6.4636,325
6.4652,323
6.4668,320
6.4684,317
6.4716,316
6.4716,320
6.4716,327
6.4716,332
6.4716,334
6.4809,332
6.4828,327
6.4848,322
6.4869,317
6.4889,316
6.4909,320
6.4935,325
6.4955,330
6.497,330
6.499,328
6.499,326
6.5034,327
6.5034,329
6.5063,334
6.5063,337
6.5104,334
6.5127,326
6.5152,321
6.5152,320
6.5152,323
6.5152,325
6.5231,327
6.5231,329
6.5231,330
6.5285,329
6.5285,328
6.5323,327
6.5323,327
6.5371,327
6.5371,327
6.5371,327
6.5371,330
6.5461,333
6.5482,335
6.5482,333
6.5482,329
6.5525,324
6.5545,321
6.5566,325
6.5586,329
6.5604,334
6.5604,334
6.5649,330
6.5649,324
6.5649,318
6.5649,314
6.5649,315
6.5761,319
6.5778,324
6.5778,327
6.5778,327
6.584,324
6.584,321
6.584,317
6.584,316
6.5917,319
6.5936,325
6.5956,328
6.5956,327
6.5956,325
6.5956,322
6.6026,322
6.6026,322
6.6074,323
6.6101,326
6.6119,328
6.6141,327
6.6157,323
6.6174,317
6.619,312
6.6207,311
6.6232,312
6.6232,316
6.6232,319
6.6232,320
6.6232,319
6.6335,319
6.6335,317
6.6335,316
6.6412,314
6.6412,315
6.6452,318
6.6463,322
6.6483,322
6.6504,321
6.653,321
6.653,321
6.6562,320
6.6569,324
6.6589,329
6.6609,330
6.663,325
6.6654,318
6.6654,314
6.6654,312
6.6722,313
6.6738,316
6.6748,318
6.6768,323
6.6788,328
6.6821,330
6.6821,327
6.6821,324
6.6821,323
6.6898,323
6.6917,326
6.6937,330
6.6937,332
6.6973,333
6.6993,331
6.6993,329
6.6993,327
6.7055,328
6.7076,334
6.7076,340
6.7076,342
6.7076,336
6.7076,330
6.7076,326
6.7185,324
6.7215,323
6.7236,323
6.7251,325
6.7271,326
6.7291,324
6.7291,318
6.7291,313
6.7291,311
6.7377,312
6.7377,317
6.7415,322
6.7415,326
6.7415,326
6.7415,323
6.7415,321
6.7415,320
6.7534,321
6.7547,322
6.7577,324
6.7577,326
6.7577,326
6.7577,325
6.7577,324
6.7577,324
6.769,323
6.769,322
6.769,322
6.7757,322
6.7757,325
6.7757,328
6.7757,329
6.7829,327
6.7847,324
6.7847,323
6.7847,323
6.7847,329
6.7938,337
6.7958,340
6.7958,339
6.7958,334
6.8005,328
6.8025,321
6.8045,319
6.8065,322
6.8086,329
6.8106,333
6.8126,334
6.8146,333
6.8164,330
6.8164,326
6.8205,323
6.8205,325
6.8251,329
6.8271,333
6.8291,334
6.8291,330
6.8322,326
6.8322,322
6.8322,320
6.8322,321
6.8322,326
6.8322,331
6.8322,335
6.8479,333
6.849,326
6.8511,319
6.8531,317
6.8551,319
6.8571,324
6.8591,333
6.8611,339
6.8632,339
6.8644,335
6.8644,330
6.8644,325
6.8644,323
6.8644,325
6.8644,327
6.8644,330
6.8789,332
6.8789,332
6.8834,328
6.8855,324
6.8875,320
6.8895,319
6.8895,321
6.8939,325
6.8949,327
6.8949,328
6.8949,327
6.901,324
6.903,322
6.905,322
6.905,326
6.9098,333
6.9108,336
6.9135,332
6.9151,327
6.9167,323
6.92,325
6.9216,328
6.9232,329
6.9232,330
6.9265,332
6.9265,332
6.9265,330
6.9265,325
6.9265,321
6.9265,318
6.9265,318
6.9265,321
6.9425,326
6.9451,329
6.9451,330
6.9496,327
6.9516,324
6.9536,321
6.9556,320
6.9577,321
6.9577,324
6.9577,326
6.9577,327
6.9577,325
6.9577,326
6.9577,327
6.9577,327
6.9737,324
6.9737,322
6.9737,324
6.9737,328
6.9737,332
6.9737,334
6.9737,333
6.9737,327
6.9895,320
6.9903,321
6.9943,325
6.9943,328
6.9964,329
6.9984,327
7.0004,324
7.0024,321
7.0062,318
7.0079,318
7.0079,322
7.0079,328
7.0126,331
7.0146,329
7.0166,324
7.0186,319
7.0206,318
7.0206,319
7.0206,322
7.0275,328
7.0296,331
7.0316,330
7.0336,327
7.0356,323
7.0366,322
7.0387,323
7.0387,327
7.043,331
7.0451,331
7.0451,328
7.0451,324
7.0451,323
7.0524,323
7.0545,325
7.0545,329
7.0545,334
7.0545,336
7.0545,333
7.0545,328
7.0545,325
7.0685,325
7.0685,327
7.0685,328
7.0685,329
7.0685,329
7.0685,330
7.0685,330
7.0685,331
7.0844,327
7.0844,322
7.0844,319
7.0844,320
7.0844,324
7.0947,329
7.0947,332
7.0947,330
7.1002,326
7.1002,322
7.1002,318
7.1002,318
7.1002,321
7.1002,327
7.1002,330
7.1154,328
7.1169,323
7.1189,319
7.1209,319
7.1229,325
7.125,331
7.127,335
7.129,333
7.131,328
7.1323,323
7.1343,318
7.1363,316
7.1363,319
7.1363,325
7.1363,329
7.1363,329
7.1469,327
7.1469,324
7.152,320
7.152,319
7.152,322
7.152,328
7.152,335
7.152,338
7.1627,334
7.1647,330
7.1647,326
7.1647,324
7.1647,323
7.1647,322
7.1647,323
7.1647,325
7.18,325
7.182,324
7.182,322
7.182,321
7.1865,317
7.1903,312
7.1903,311
7.1903,313
7.1949,316
7.1969,318
7.1994,317
7.1994,315
7.2025,314
7.2045,313
7.2045,314
7.2045,317
7.2102,321
7.2122,323
7.2142,323
7.2162,322
7.2182,321
7.2202,320
7.2223,320
7.226,321
7.228,324
7.228,323
7.232,320
7.234,318
7.236,318
7.236,318
7.2381,317
7.2418,317
7.2437,319
7.2457,321
7.2474,321
7.249,322
7.2505,323
7.2536,325
7.2552,325
7.2579,323
7.2579,319
7.2579,318
7.2579,318
7.2579,319
7.2579,320
7.2579,321
7.2579,319
7.2737,314
7.2737,310
7.2737,306
7.2737,304
7.2737,303
7.2835,303
7.2855,302
7.2876,300
7.2899,299
7.2911,298
7.2931,299
7.2952,302
7.2972,303
7.2992,302
7.3012,300
7.3012,297
7.3059,297
7.3059,298
7.3059,300
7.3059,305
7.3135,310
7.3155,312
7.3155,313
7.3155,312
7.3217,310
7.3241,307
7.3256,307
7.3256,308
7.3256,311
7.3256,313
7.3256,315
7.3348,316
7.3369,313
7.3388,311
7.3409,312
7.3429,315
7.3449,317
7.3449,318
7.3489,316
7.3509,312
7.3527,309
7.3547,308
7.3568,309
7.3588,310
7.3609,313
7.3629,315
7.3649,315
7.3649,313
7.3684,308
7.3684,303
7.3684,300
7.3684,299
7.3772,301
7.3792,305
7.3812,308
7.3832,311
7.3842,309
7.3863,306
7.3883,302
7.3903,301
7.3923,303
7.3953,307
7.3974,310
7.3994,311
7.4015,310
7.4035,306
7.4055,302
7.4075,298
7.4095,298
7.4116,300
7.4136,301
7.4153,300
7.4153,299
7.4189,301
7.4209,300
7.423,299
7.423,297
7.4262,298
7.4282,300
7.4312,301
7.4312,301
7.4312,300
7.4363,297
7.4363,294
7.442,293
7.442,295
7.442,298
7.4482,301
7.4508,303
7.4508,303
7.4528,303
7.4528,301
7.4582,299
7.4582,299
7.4582,300
7.4628,302
7.4628,302
7.4628,301
7.4628,301
7.4702,300
7.4738,300
7.4738,300
7.4738,300
7.4786,300
7.4805,299
7.4805,297
7.4855,295
7.4855,296
7.49,298
7.49,301
7.4922,302
7.4954,302
7.4954,300
7.4954,297
7.4954,295
7.4954,296
7.5052,296
7.5075,297
7.5094,300
7.5105,302
7.5105,302
7.5151,300
7.5171,298
7.5171,294
7.5171,292
7.5171,290
7.5171,291
7.5277,294
7.5277,298
7.5277,300
7.5277,301
7.5355,302
7.5375,301
7.5375,299
7.5375,298
7.5425,298
7.5425,300
7.5425,303
7.5425,303
7.5507,301
7.5529,299
7.5529,296
7.5529,293
7.5581,293
7.5605,294
7.5625,295
7.5645,296
7.5666,297
7.5666,298
7.5715,298
7.5736,298
7.5756,298
7.5756,299
7.5756,299
7.5756,299
7.5756,297
7.5852,296
7.5873,298
7.5893,302
7.5893,302
7.5893,301
7.5957,300
7.5977,299
7.5998,298
7.6019,296
7.6042,296
7.6052,294
7.6052,291
7.6095,286
7.6115,282
7.6135,280
7.6135,278
7.6135,276
7.619,275
7.621,274
7.6235,273
7.6256,272
7.6276,272
7.6299,275
7.6319,276
7.6339,277
7.6339,277
7.637,277
7.637,278
7.637,281
7.637,282
7.637,283
7.637,282
7.6496,282
7.6496,280
7.6529,277
7.6554,274
7.6554,273
7.6589,273
7.6609,273
7.663,275
7.665,277
7.667,279
7.6688,280
7.6715,280
7.6736,279
7.6761,278
7.6761,278
7.6761,278
7.6761,278
7.6761,276
7.6845,274
7.6866,272
7.6886,271
7.6906,270
7.6926,270
7.6957,270
7.6957,271
7.6992,271
7.7002,269
7.7002,268
7.7002,267
7.7082,265
7.7102,264
7.7102,264
7.7102,264
7.7172,264
7.7172,264
7.719,263
7.719,263
7.719,262
7.719,262
7.719,262
7.719,262
7.732,263
7.732,262
7.732,261
7.7366,260
7.74,260
7.74,261
7.74,262
7.74,263
7.74,264
7.7485,263
7.7485,262
7.7485,260
7.756,260
7.756,261
7.756,263
7.7602,264
7.7622,267
7.7663,269
7.7663,271
7.7683,272
7.7721,273
7.7721,274
7.7761,277
7.7761,280
7.7781,282
7.7822,281
7.7822,280
7.7842,277
7.788,275
7.788,272
7.788,270
7.788,269
7.796,270
7.796,272
7.796,273
7.796,273
7.8038,272
7.8058,270
7.8078,269
7.8098,269
7.8118,269
7.8139,270
7.8164,271
7.8164,273
7.8195,273
7.8195,272
7.8195,271
7.8195,271
7.8195,271
7.8195,270
7.8195,270
7.8195,270
7.8354,269
7.8354,268
7.8354,266
7.8354,265
7.8438,266
7.8449,268
7.8464,270
7.8495,273
7.8511,273
7.8527,271
7.8542,270
7.8542,270
7.8542,269
7.8542,269
7.8542,267
7.8542,267
7.8671,266
7.8671,265
7.8671,265
7.8734,265
7.8754,265
7.8775,266
7.8795,267
7.8795,268
7.8832,267
7.8832,264
7.8875,262
7.8895,260
7.8916,259
7.8936,259
7.8936,261
7.8961,262
7.8992,262
7.9012,263
7.9032,262
7.9052,262
7.9072,260
7.9093,259
7.9113,260
7.9133,260
7.9151,260
7.9151,259
7.9151,259
7.9151,259
7.9235,259
7.9255,259
7.9275,259
7.9275,259
7.9322,259
7.9322,258
7.9322,256
7.9369,254
7.9389,252
7.9409,251
7.943,250
7.946,250
7.946,251
7.946,252
7.946,253
7.946,254
7.9554,254
7.9575,255
7.9595,255
7.9615,255
7.9635,254
7.9635,253
7.9635,254
7.9635,254
7.9635,255
7.9635,256
7.9635,256
7.9774,256
7.9774,256
7.9774,256
7.9831,257
7.9831,258
7.9867,259
7.9867,260
7.9867,260
7.9933,259
7.9961,259
7.9961,259
7.9961,258
7.9961,257
7.9961,256
7.9961,255
8.0067,255
8.0094,254
8.0114,254
8.0114,254
8.0163,253
8.017,253
8.017,253
8.017,253
8.017,253
8.0252,253
8.0272,254
8.0272,253
8.0272,253
8.0272,253
8.0352,252
8.0352,251
8.0352,250
8.0409,249
8.0409,250
8.0409,253
8.0464,254
8.0484,254
8.0484,254
8.0484,254
8.0484,253
8.0566,252
8.0566,251
8.0566,251
8.0566,251
8.0566,251
8.0566,251
8.0566,252
8.0714,252
8.0724,251
8.0744,251
8.0744,251
8.0744,252
8.0811,253
8.0831,253
8.0831,254
8.0831,255
8.0884,255
8.0884,255
8.0884,255
8.0884,255
8.0961,255
8.0961,255
8.0961,255
8.0961,254
8.1045,253
8.1065,251
8.1065,251
8.1065,251
8.1065,252
8.1065,252
8.1065,251
8.1065,250
8.1205,249
8.1205,249
8.1205,247
8.1205,246
8.1205,246
8.1205,246
8.1334,246
8.1334,246
8.1364,247
8.1364,246
8.1364,247
8.1364,248
8.1364,251
8.1478,257
8.1498,259
8.1498,258
8.1522,258
8.1522,256
8.1522,255
8.1522,256
8.1622,258
8.1622,261
8.1648,263
8.168,264
8.168,262
8.168,261
8.168,262
8.168,263
8.168,264
8.168,264
8.168,263
8.1838,261
8.1851,257
8.1851,254
8.1851,250
8.1851,247
8.1851,246
8.1851,244
8.1962,242
8.1998,240
8.1998,237
8.1998,235
8.1998,233
8.2073,232
8.2073,232
8.2073,233
8.2073,234
8.2156,235
8.2156,235
8.2156,235
8.2156,235
8.2156,237
8.2247,239
8.2267,243
8.2287,248
8.2317,251
8.2317,253
8.2317,254
8.2317,255
8.2386,255
8.2406,255
8.2427,256
8.2427,256
8.2476,256
8.2495,255
8.2515,254
8.2535,254
8.2535,253
8.2535,251
8.2535,247
8.2609,244
8.2636,242
8.2659,241
8.2669,240
8.2669,238
8.2719,235
8.274,232
8.274,232
8.2767,232
8.2795,232
8.2821,233
8.2837,236
8.2854,241
8.2871,243
8.2888,242
8.2905,244
8.2921,247
8.2957,249
8.2962,250
8.2962,248
8.2962,244
8.2962,240
8.3057,237
8.3077,235
8.3097,233
8.3115,232
8.3115,231
8.3149,228
8.3149,225
8.3149,223
8.3149,221
8.3149,220
8.3149,219
8.3275,219
8.3275,220
8.3275,221
8.3275,223
8.3275,225
8.3275,225
8.3389,226
8.3409,228
8.3429,230
8.345,233
8.345,241
8.345,244
8.345,247
8.345,248
8.345,245
8.345,242
8.3587,240
8.3587,240
8.3634,240
8.3654,238
8.3674,236
8.3695,235
8.3721,236
8.3721,236
8.3748,237
8.3748,239
8.3786,241
8.3806,243
8.3806,246
8.3855,252
8.3875,259
8.3895,263
8.3906,265
8.3906,264
8.3906,269
8.3981,273
8.4001,274
8.4001,272
8.4021,267
8.4062,264
8.4074,264
8.4094,259
8.4114,253
8.4134,247
8.4155,241
8.4155,237
8.4188,234
8.4219,231
8.4239,227
8.4259,224
8.4279,220
8.4299,217
8.4319,215
8.4319,213
8.4319,211
8.4377,210
8.4377,208
8.4414,206
8.4414,205
8.4414,204
8.4414,203
8.4494,203
8.4514,202
8.4534,202
8.4534,202
8.457,201
8.459,201
8.461,200
8.463,199
8.465,199
8.465,199
8.4692,199
8.4692,200
8.4692,199
8.4767,199
8.4767,199
8.4767,199
8.4767,199
8.4767,199
8.4851,199
8.4851,199
8.49,199
8.492,199
8.494,199
8.4961,198
8.4981,199
8.4981,199
8.5012,199
8.5012,199
8.5048,199
8.5068,199
8.5089,198
8.5089,198
8.5089,198
8.5151,198
8.5169,199
8.5169,199
8.5203,199
8.5223,199
8.5243,199
8.5243,199
8.5243,198
8.5243,198
8.533,198
8.533,198
8.533,199
8.5387,198
8.5387,198
8.5387,198
8.5387,198
8.5387,198
8.5486,198
8.5507,199
8.5527,199
8.5547,198
8.5567,199
8.5587,198
8.5608,199
8.5628,198
8.5645,199
8.5645,199
8.5645,199
8.5718,199
8.5739,199
8.5739,199
8.5739,199
8.5739,199
8.5804,199
8.5804,199
8.5856,199
8.5876,199
8.5876,199
8.5876,199
8.5876,198
8.5876,198
8.5963,198
8.5984,199
8.5984,199
8.5984,199
8.6047,199
8.6067,199
8.6087,198
8.6113,198
8.6123,198
8.6143,198
8.6184,199
8.6184,199
8.6184,199
8.6184,199
8.6184,198
8.6184,198
8.6282,198
8.6282,198
8.6282,198
8.6282,198
8.6282,198
8.6282,198
8.6412,198
8.6443,198
8.6443,198
8.6443,198
8.6495,198
8.6495,198
8.6495,198
8.6547,198
8.6567,198
8.6587,198
8.6603,198
8.6603,198
8.6603,198
8.6603,198
8.6691,198
8.6691,198
8.6691,198
8.676,198
8.6766,198
8.6796,198
8.6816,198
8.6816,198
8.6856,198
8.6856,198
8.6856,198
8.6912,198
8.6912,198
8.6942,198
8.6968,198
8.6992,198
8.7012,198
8.7012,198
8.7012,198
8.7072,198
8.7092,198
8.7125,198
8.7135,198
8.715,198
8.7166,198
8.7197,198
8.7213,198
8.7229,198
8.7229,198
8.7229,198
8.7229,198
8.7229,198
8.7229,198
8.7229,198
8.7229,198
8.7389,198
8.7389,198
8.7389,198
8.7389,198
8.7389,198
8.7495,198
8.7516,198
8.7536,198
8.7546,198
8.7546,198
8.7546,198
8.7618,197
8.7638,198
8.7658,197
8.7658,198
8.7689,198
8.7723,198
8.7743,198
8.7743,198
8.7763,198
8.7784,198
8.782,198
8.782,198
8.782,198
8.782,198
8.782,198
8.7905,198
8.7905,198
8.7905,197
8.7969,198
8.7984,198
8.8006,198
8.8026,198
8.8046,198
8.8064,198
8.8095,199
8.8116,198
8.8136,198
8.8156,199
8.8176,199
8.8176,199
8.8176,199
8.8223,199
8.8223,199
8.8223,199
8.8293,199
8.8313,199
8.8334,199
8.8354,199
8.8374,199
8.8384,199
8.8384,199
8.8384,199
8.8384,199
8.8384,198
8.8499,199
8.8519,199
8.8519,199
8.8544,199
8.8567,199
8.8587,198
8.8607,198
8.8628,198
8.8648,199
8.8648,199
8.87,199
8.87,199
8.8732,199
8.8752,199
8.8772,198
8.8792,198
8.8792,198
8.8792,199
8.8862,199
8.8872,199
8.8872,199
8.8872,199
8.8872,199
8.8872,199
8.8969,199
8.8989,199
8.9019,199
8.9039,199
8.9059,200
8.9079,200
8.9099,200
8.9099,200
8.9099,200
8.9099,200
8.9177,200
8.9177,200
8.9177,200
8.9227,200
8.9227,200
8.9227,200
8.9227,200
8.9227,200
8.9337,200
8.9337,200
8.9369,201
8.9391,201
8.9391,201
8.9391,201
8.9391,201
8.9391,201
8.9493,200
8.9507,200
8.9527,201
8.9547,200
8.9547,200
8.9547,200
8.9547,200
8.9547,200
8.9652,200
8.9652,200
8.969,201
8.9711,201
8.9711,201
8.9711,201
8.9711,201
8.9711,201
8.981,201
8.981,201
8.981,201
8.9869,201
8.9889,201
8.9909,202
8.9929,201
8.9929,201
8.9972,202
8.9992,202
8.9992,202
8.9992,202
9.0055,202
9.0055,202
9.0093,202
9.0093,201
9.0131,201
9.0161,201
9.0161,201
9.0161,201
9.0161,201
9.0161,201
9.0161,201
9.0264,201
9.0297,201
9.0297,201
9.0329,201
9.0329,201
9.0329,201
9.0395,201
9.0416,201
9.0416,201
9.045,201
9.045,201
9.045,201
9.045,201
9.045,201
9.045,201
9.0572,201
9.0592,200
9.061,200
9.061,200
9.061,201
9.061,201
9.0692,201
9.0712,201
9.0712,201
9.0712,201
9.0769,200
9.0794,200
9.0814,200
9.0834,200
9.0834,200
9.0834,200
9.0834,200
9.0834,199
9.0927,199
9.0927,199
9.0974,199
9.0974,199
9.1004,199
9.1004,199
9.1004,199
9.1004,199
9.109,199
9.109,198
9.109,198
9.109,198
9.109,198
9.109,199
9.109,199
9.124,199
9.1257,198
9.1275,198
9.1275,198
9.1275,198
9.1275,198
9.1275,198
9.1275,199
9.1397,199
9.1397,198
9.1438,198
9.1458,198
9.1478,198
9.1478,198
9.1478,198
9.1478,198
9.1555,199
9.1555,199
9.1555,198
9.1555,198
9.1555,198
9.1652,198
9.1652,198
9.1652,198
9.1712,198
9.1712,198
9.1712,198
9.1712,198
9.1712,198
9.1712,198
9.1829,198
9.1855,198
9.1872,199
9.1886,198
9.1886,198
9.1935,198
9.1935,198
9.1974,198
9.1974,198
9.1974,198
9.2029,198
9.2029,198
9.2029,198
9.2029,198
9.211,198
9.211,198
9.211,198
9.2174,198
9.2189,198
9.2189,198
9.2235,198
9.2235,198
9.2235,198
9.2235,198
9.2321,198
9.2321,198
9.2342,198
9.2342,198
9.2342,198
9.2342,198
9.2342,198
9.2342,198
9.2342,197
9.2501,198
9.2501,198
9.2501,198
9.2501,198
9.2501,198
9.2501,198
9.2501,198
9.2501,198
9.2653,198
9.2673,198
9.2673,198
9.2673,198
9.2673,198
9.2744,198
9.2778,198
9.2805,197
9.2805,198
9.2805,197
9.2805,198
9.2805,198
9.2805,198
9.2805,198
9.2942,198
9.2942,197
9.2977,197
9.2998,197
9.2998,198
9.2998,198
9.3047,198
9.3076,198
9.3076,198
9.3105,197
9.3139,197
9.3154,197
9.3154,198
9.3154,198
9.3204,198
9.3204,198
9.3247,198
9.3267,198
9.3284,197
9.332,197
9.332,198
9.3361,198
9.3361,198
9.3361,198
9.3361,198
9.3361,198
9.3446,198
9.3446,198
9.3446,198
9.3446,198
9.3538,198
9.3558,199
9.3578,198
9.3578,198
9.3616,198
9.3627,198
9.3658,198
9.3673,198
9.3689,198
9.3705,198
9.3721,199
9.3721,198
9.3766,198
9.3766,198
9.3766,198
9.3837,198
9.3837,198
9.3883,199
9.3883,198
9.3883,198
9.3922,198
9.3922,198
9.3981,198
9.4001,198
9.4001,199
9.4001,199
9.4052,199
9.4073,198
9.4083,198
9.4108,198
9.4125,198
9.4125,198
9.4125,198
9.4125,198
9.4125,198
9.4239,198
9.4239,198
9.4239,198
9.4239,198
9.4239,198
9.4329,198
9.4358,198
9.4379,198
9.4396,198
9.4396,198
9.4396,198
9.4396,197
9.4472,197
9.4472,197
9.4472,198
9.4472,198
9.4549,198
9.4569,198
9.4569,198
9.4569,198
9.4569,197
9.4569,198
9.4673,197
9.4673,198
9.4707,198
9.4735,198
9.4755,197
9.4755,197
9.48,197
9.48,197
9.48,197
9.48,198
9.4866,198
9.4866,198
9.4866,198
9.4866,198
9.4866,197
9.498,197
9.498,197
9.498,197
9.5037,198
9.5037,198
9.5037,197
9.5037,197
9.5106,197
9.5106,197
9.5152,197
9.5172,198
9.5182,198
9.5182,198
9.5182,198
9.5182,198
9.5263,197
9.5263,197
9.5263,197
9.5343,197
9.5343,197
9.5343,198
9.5343,198
9.5343,198
9.5343,197
9.5343,197
9.5467,197
9.5467,197
9.5503,197
9.5523,198
9.5523,198
9.5523,198
9.5523,197
9.5523,197
9.5523,197
9.5523,197
9.5662,197
9.5662,197
9.5662,197
9.5662,198
9.5662,197
9.5662,197
9.5794,197
9.5814,197
9.5814,197
9.5849,198
9.5849,198
9.5849,198
9.5849,198
9.5849,197
9.5849,197
9.5972,197
9.5988,197
9.5988,197
9.5988,197
9.5988,198
9.5988,198
9.5988,198
9.5988,198
9.613,197
9.613,197
9.613,197
9.613,197
9.613,198
9.613,198
9.613,198
9.613,197
9.629,198
9.629,197
9.629,197
9.6355,197
9.6355,197
9.6355,198
9.6355,198
9.6438,197
9.6462,197
9.6477,197
9.6494,197
9.6511,198
9.6527,197
9.6543,198
9.6543,198
9.6543,197
9.6607,197
9.6607,197
9.6655,197
9.6655,197
9.6655,198
9.6655,198
9.6655,198
9.6749,197
9.6767,197
9.6788,197
9.6808,197
9.6828,197
9.6848,198
9.6848,198
9.6848,197
9.6905,197
9.6925,197
9.6925,197
9.6982,197
9.6982,197
9.6982,197
9.6982,198
9.6982,198
9.6982,198
9.7099,197
9.7099,197
9.7099,197
9.7099,197
9.7162,197
9.7195,198
9.7195,198
9.7195,198
9.7243,198
9.7243,197
9.7243,197
9.7315,197
9.7335,197
9.7335,198
9.7335,198
9.7335,198
9.7402,197
9.7402,197
9.7402,197
9.7402,197
9.7402,197
9.7402,197
9.7402,198
9.7559,198
9.7559,198
9.7559,198
9.7559,197
9.7559,197
9.7662,197
9.7682,198
9.7682,198
9.7719,198
9.7739,198
9.7739,198
9.7739,197
9.7739,197
9.7739,197
9.7739,197
9.7739,197
9.788,198
9.7893,198
9.7893,197
9.7923,197
9.7923,197
9.7982,197
9.7982,197
9.7982,197
9.8039,197
9.8039,198
9.8039,197
9.8039,197
9.8039,197
9.8142,197
9.8162,197
9.8162,197
9.8192,197
9.8214,198
9.8214,197
9.8214,197
9.8214,197
9.8214,197
9.8214,197
9.8214,197
9.8358,197
9.8362,197
9.8362,198
9.8362,198
9.8362,197
9.8362,197
9.8362,197
9.8486,197
9.8486,197
9.8486,197
9.8543,197
9.8561,198
9.8561,197
9.8561,197
9.8561,197
9.8649,197
9.8649,197
9.8649,197
9.8649,197
9.8649,197
9.8649,197
9.8649,197
9.88,197
9.88,197
9.88,197
9.88,197
9.88,197
9.88,197
9.88,197
9.88,197
9.8957,197
9.8957,197
9.8985,197
9.8985,197
9.8985,197
9.9058,197
9.9078,197
9.9078,197
9.9114,197
9.9114,197
9.9114,197
9.9114,197
9.9114,197
9.9114,197
9.9114,198
9.9114,197
9.9272,197
9.9272,197
9.9272,197
9.9272,197
9.9272,197
9.9272,197
9.9386,197
9.9386,198
9.9429,198
9.9429,197
9.9429,197
9.9429,197
9.9504,197
9.9524,197
9.9524,197
9.9524,197
9.959,197
9.959,197
9.959,197
9.9651,197
9.9671,197
9.9671,197
9.9671,197
9.9671,197
9.9751,197
9.9751,197
9.9751,197
9.9751,197
9.9751,197
9.9751,197
9.9751,197
9.9751,197
9.9911,197
9.9911,197
9.9911,197
9.9911,197
9.9985,197
10.0005,197
10.0005,197
10.0005,197
10.0071,197
10.0071,197
10.0071,197
10.0071,197
10.0071,197
10.0071,197
10.0071,197
10.0071,198
10.0229,197
10.0229,197
10.0229,197
10.0229,197
10.0229,197
10.0229,197
10.0229,197
10.0229,197
10.039,197
10.039,197
10.039,197
10.039,197
10.039,197
10.039,197
10.039,197
10.039,197
10.0551,197
10.0551,197
10.0551,197
10.0551,197
10.0551,197
10.0551,197
10.0665,197
10.0665,197
10.0717,197
10.0717,197
10.0717,197
10.0717,197
10.0717,197
10.0717,197
10.0827,197
10.0827,197
10.0869,197
10.0869,197
10.0869,197
10.0869,197
10.0869,197
10.0869,197
10.0987,197
10.0987,197
10.1026,198
10.1026,197
10.1026,197
10.1097,197
10.1097,197
10.1126,197
10.1126,197
10.1126,197
10.1184,197
10.1184,198
10.1184,197
10.1184,197
10.1184,197
10.1184,197
10.1184,197
10.1184,197
10.1342,197
10.1342,197
10.1381,197
10.1401,197
10.1401,197
10.1401,197
10.1401,197
10.1495,197
10.1495,197
10.1495,197
10.1495,197
10.1495,197
10.1495,197
10.1495,197
10.1495,197
10.1656,197
10.1656,197
10.1656,198
10.1656,197
10.1656,198
10.1656,197
10.1656,197
10.1656,197
10.1816,197
10.1816,197
10.1816,197
10.1816,197
10.1816,197
10.1816,197
10.1816,197
10.1816,197
10.1973,197
10.1988,197
10.1988,197
10.1988,198
10.1988,198
10.1988,197
10.1988,197
10.1988,197
10.2133,197
10.216,197
10.216,197
10.216,197
10.216,197
10.216,197
10.216,197
10.216,197
10.2292,197
10.2292,197
10.2326,197
10.2326,197
10.2326,197
10.2326,197
10.2326,197
10.2326,197
10.245,197
10.2468,197
10.2489,197
10.2509,197
10.2509,197
10.2509,197
10.2579,197
10.2579,197
10.2608,197
10.2608,197
10.2608,197
10.2608,197
10.2608,197
10.2704,197
10.2704,198
10.2704,197
10.2767,197
10.2767,197
10.2767,197
10.2767,197
10.2767,197
10.2767,197
10.2767,197
10.2767,197
10.2927,197
10.2927,197
10.2927,197
10.2988,197
10.2988,197
10.2988,197
10.2988,197
10.2988,197
10.3087,197
10.3087,197
10.3087,197
10.3087,197
10.3087,197
10.3087,197
10.3087,198
10.3087,197
10.3243,197
10.3243,197
10.3243,197
10.3319,197
10.3336,197
10.3346,197
10.3378,197
10.3394,197
10.3421,197
10.3437,197
10.3437,197
10.3437,197
10.3437,197
10.3437,197
10.3437,197
10.3437,197
10.3564,198
10.3564,197
10.3609,197
10.3609,197
10.3609,197
10.3666,197
10.3701,197
10.3721,198
10.3737,198
10.3758,198
10.3758,197
10.3758,197
10.3819,197
10.3819,197
10.3844,197
10.3844,198
10.3901,197
10.3901,197
10.3901,197
10.3901,197
10.3983,197
10.3991,197
10.3991,197
10.3991,197
10.3991,197
10.3991,197
10.3991,197
10.3991,197
10.4142,197
10.4153,197
10.4153,197
10.4153,197
10.4153,197
10.4153,197
10.4153,197
10.4153,197
10.4302,197
10.4302,197
10.4302,197
10.4349,197
10.4369,198
10.4369,197
10.4369,197
10.4369,197
10.4459,197
10.4471,197
10.4471,197
10.4471,197
10.4471,197
10.4471,197
10.4581,197
10.4581,197
10.4618,197
10.4618,197
10.4618,197
10.4663,197
10.469,197
10.469,197
10.469,197
10.469,197
10.4775,197
10.4775,197
10.4775,197
10.4824,197
10.4824,197
10.4824,197
10.4824,197
10.4824,197
10.4939,197
10.4939,197
10.4939,197
10.4991,197
10.4991,197
10.4991,197
10.4991,197
10.4991,197
10.5092,197
10.5092,197
10.5092,197
10.5152,197
10.5172,197
10.5172,197
10.5172,197
10.5235,197
10.5253,197
10.5253,197
10.5253,197
10.5253,197
10.5328,197
10.5328,197
10.5368,197
10.5368,197
10.541,197
10.541,197
10.541,197
10.541,197
10.5495,197
10.5495,197
10.5495,197
10.5541,197
10.5568,198
10.5568,197
10.5568,197
10.5568,197
10.5568,197
10.5568,197
10.5687,197
10.5687,197
10.5727,197
10.5727,197
10.5727,197
10.5727,197
10.5727,197
10.5727,197
10.5727,197
10.5866,197
10.59,197
10.591,197
10.5926,197
10.5957,197
10.5973,197
10.5994,197
10.6004,197
10.6041,197
10.6041,197
10.6041,197
10.6041,197
10.6114,197
10.6134,197
10.6154,197
10.6175,197
10.6195,197
10.6195,197
10.6195,198
10.6195,197
10.6195,197
10.6195,197
10.6195,197
10.6329,197
10.6353,197
10.6353,198
10.6353,197
10.6353,197
10.6353,197
10.6353,197
10.6353,197
10.6353,197
10.6509,197
10.6509,197
10.6509,197
10.6509,197
10.6509,197
10.6509,197
10.6509,197
10.6509,197
10.6667,197
10.6667,197
10.6667,197
10.6667,197
10.6667,197
10.6667,197
10.6667,197
10.6667,197
10.6825,197
10.6825,197
10.6825,197
10.6825,197
10.6825,197
10.6825,197
10.6825,197
10.6825,197
10.6997,197
10.6997,197
10.6997,197
10.6997,197
10.6997,197
10.6997,197
10.6997,197
10.7139,197
10.7152,197
10.7152,197
10.7188,197
10.7208,197
10.7208,197
10.7256,197
10.7271,197
10.7287,197
10.7314,197
10.7329,197
10.7345,197
10.7345,198
10.7345,197
10.7345,197
10.7345,197
10.7459,197
10.749,197
10.7511,197
10.7511,197
10.7511,197
10.7511,197
10.7511,197
10.7511,197
10.762,197
10.762,197
10.762,197
10.762,197
10.762,197
10.762,197
10.762,197
10.762,197
10.7778,197
10.7778,197
10.7778,197
10.7778,197
10.7778,197
10.7778,197
10.7778,197
10.7778,197
10.7939,197
10.7939,197
10.7939,197
10.8,197
10.8,197
10.8,197
10.8,197
10.8,197
10.81,197
10.81,197
10.81,197
10.81,197
10.8171,197
10.8171,197
10.8171,197
10.8171,197
10.8257,197
10.8257,197
10.8257,197
10.8257,197
10.8257,197
10.8257,197
10.8257,197
10.8257,197
10.8415,197
10.8415,197
10.8415,197
10.8415,197
10.8415,197
10.8415,197
10.8415,197
10.8415,197
10.8573,197
10.8573,197
10.8573,197
10.8624,197
10.8661,197
10.8681,197
10.8681,197
10.8681,197
10.8731,197
10.8731,197
10.8731,197
10.8803,197
10.8823,197
10.8823,197
10.8843,197
10.8843,197
10.8904,197
10.8912,197
10.8912,197
10.8912,197
10.8912,197
10.9003,197
10.9003,197
10.9003,197
10.9003,197
10.9069,197
10.9069,197
10.9069,197
10.9069,197
10.9151,197
10.9151,197
10.9151,197
10.9151,197
10.9227,197
10.9227,198
10.9267,197
10.9287,197
10.9287,197
10.9336,197
10.9356,197
10.9356,197
10.9387,197
10.9408,197
10.9408,197
10.9408,197
10.9466,197
10.9466,197
10.9466,197
10.9466,197
10.9549,197
10.9549,197
10.9601,197
10.9601,197
10.9601,197
10.966,197
10.968,197
10.968,197
10.9709,197
10.9709,197
10.9709,197
10.9709,197
10.9709,197
10.9709,197
10.9709,197
10.9709,197
10.9869,198
10.9869,198
10.9869,198
10.9869,198
10.9951,198
10.9951,197
10.9995,197
11.0005,197
11.0028,197
11.005,198
11.005,198
11.005,197
11.0109,197
11.0109,197
11.0151,197
11.0151,197
11.0187,197
11.0187,197
11.0187,198
11.0187,198
11.0187,197
11.0187,197
11.0187,197
11.0187,197
11.0347,197
11.0381,197
11.0381,198
11.0381,197
11.0381,197
11.0381,197
11.0381,197
11.0381,197
11.0505,197
11.0505,197
11.0505,197
11.0566,197
11.0586,197
11.0606,197
11.0626,197
11.0661,197
11.0661,197
11.0661,197
11.0661,197
11.0661,197
11.0661,197
11.0661,197
11.0794,197
11.0822,197
11.0831,197
11.0831,197
11.0831,197
11.0831,197
11.0831,198
11.0831,197
11.0831,197
11.098,197
11.098,197
11.1007,197
11.104,197
11.104,197
11.104,197
11.104,197
11.104,197
11.1137,197
11.1143,197
11.1143,197
11.1143,197
11.1143,197
11.1143,197
11.1143,197
11.1143,197
11.1295,197
11.1295,197
11.1295,197
11.1295,197
11.1295,197
11.1295,197
11.1421,197
11.1421,197
11.1452,197
11.1482,197
11.1482,197
11.1482,197
11.1482,197
11.1482,197
11.1482,197
11.1482,197
11.1611,197
11.1611,197
11.1652,197
11.1678,197
11.1694,197
11.1709,197
11.1725,198
11.1756,197
11.1778,197
11.1798,197
11.1811,197
11.1838,197
11.1851,197
11.1851,197
11.1851,197
11.1851,197
11.1928,197
11.1928,197
11.1963,197
11.1994,197
11.2009,197
11.2009,197
11.2009,197
11.2009,197
11.2085,197
11.2085,197
11.2085,197
11.2155,197
11.2155,197
11.2155,197
11.2155,197
11.2155,197
11.2243,197
11.2243,197
11.2243,197
11.2313,197
11.2313,197
11.236,197
11.236,197
11.2381,197
11.2401,198
11.2401,197
11.245,197
11.245,197
11.245,197
11.2517,197
11.2522,197
11.256,197
11.256,197
11.256,197
11.256,197
11.256,197
11.256,197
11.256,197
11.256,197
11.272,197
11.272,197
11.272,197
11.272,197
11.272,197
11.272,197
11.272,197
11.272,197
11.2876,197
11.2889,197
11.2889,197
11.2889,197
11.2889,197
11.2889,197
11.2995,197
11.301,197
11.3034,197
11.3034,197
11.3034,197
11.3034,197
11.3034,197
11.3034,197
11.3151,197
11.3151,197
11.3192,197
11.3202,197
11.3202,197
11.3202,197
11.3202,197
11.3202,197
11.331,197
11.331,197
11.3352,197
11.3352,197
11.3352,197
11.3352,197
11.3352,197
11.3352,197
11.3352,197
11.3352,197
11.3509,197
11.3509,197
11.3509,197
11.3509,197
11.3509,197
11.3509,197
11.3509,197
11.3509,197
11.3666,197
11.3666,197
11.3701,197
11.3701,197
11.3701,197
11.3701,197
11.3701,197
11.3701,197
11.3824,197
11.3824,197
11.3824,197
11.3824,197
11.3824,197
11.3824,197
11.3824,197
11.3824,197
11.3989,197
11.4013,197
11.4013,197
11.4013,197
11.4013,197
11.4013,197
11.4013,197
11.414,197
11.4151,197
11.4151,197
11.4151,197
11.4151,197
11.4151,197
11.4151,197
11.4151,197
11.43,197
11.4311,197
11.4331,197
11.4331,197
11.4331,198
11.4383,198
11.4383,197
11.4383,197
11.4383,197
11.4464,197
11.4464,197
11.4501,197
11.4501,197
11.4501,198
11.4501,198
11.4501,197
11.4501,197
11.4621,197
11.4649,197
11.4649,197
11.4649,197
11.4704,198
11.4704,198
11.4745,198
11.4745,197
11.4784,197
11.4816,197
11.4816,197
11.4816,198
11.4816,198
11.4816,198
11.4816,198
11.4816,198
11.4942,197
11.4942,197
11.5,197
11.5015,197
11.5015,198
11.5046,198
11.5046,198
11.5099,197
11.5099,197
11.5099,197
11.5099,197
11.5099,197
11.5099,198
11.5099,198
11.5099,198
11.5257,198
11.5257,197
11.5257,197
11.5317,197
11.5336,197
11.5336,197
11.5336,198
11.5336,198
11.5417,198
11.5417,197
11.5453,197
11.5473,197
11.5473,197
11.5473,197
11.5473,197
11.5473,198
11.5575,197
11.5596,197
11.5616,197
11.5616,197
11.5654,197
11.5674,197
11.5674,197
11.5674,197
11.5738,197
11.5738,197
11.5738,197
11.5738,197
11.5738,197
11.5738,197
11.5844,197
11.5844,197
11.5893,197
11.5893,197
11.5893,197
11.5893,197
11.5893,197
11.5893,197
11.6014,197
11.6038,197
11.6054,197
11.6054,197
11.6054,197
11.6054,197
11.614,197
11.614,197
11.614,197
11.614,197
11.6215,197
11.6215,198
11.6215,197
11.6274,197
11.6294,197
11.6314,197
11.6314,197
11.636,197
11.6372,197
11.6372,197
11.6372,197
11.6372,197
11.6451,197
11.6451,197
11.6481,197
11.6481,197
11.653,197
11.653,197
11.6563,198
11.6583,198
11.6603,197
11.6603,197
11.6603,197
11.6603,197
11.6683,198
11.6713,198
11.6713,199
11.6743,199
11.6763,199
11.6783,198
11.6822,198
11.6839,199
11.6839,200
11.6871,208
11.6891,222
11.6911,264
11.6933,325
11.6933,334
11.6971,333
11.6991,329
11.7016,327
11.7036,328
11.7036,329
11.7036,329
11.7091,330
11.7091,332
11.7126,333
11.7148,332
11.7169,331
11.7169,331
11.7213,330
11.7233,329
11.7233,329
11.7273,329
11.7294,328
11.7316,327
11.7331,326
11.7347,326
11.7378,327
11.7395,326
11.741,325
11.741,327
11.741,331
11.7464,333
11.7464,331
11.7464,327
11.7464,324
11.7464,320
11.7464,318
11.7464,321
11.7464,326
11.7624,333
11.7624,334
11.7624,330
11.7624,326
11.7624,326
11.7624,327
11.7624,329
11.7624,331
11.7782,332
11.7782,332
11.7822,333
11.7822,333
11.7822,331
11.7822,330
11.7822,330
11.794,332
11.794,335
11.794,334
11.794,330
11.8017,328
11.8017,330
11.8017,332
11.8017,332
11.81,333
11.81,334
11.81,334
11.8148,331
11.8148,328
11.8148,329
11.8148,331
11.8148,330
11.8256,331
11.8256,334
11.8282,336
11.8322,335
11.8322,331
11.8322,330
11.8322,332
11.8322,333
11.8413,330
11.8413,328
11.8413,330
11.8468,334
11.8488,335
11.8488,332
11.8534,330
11.8534,328
11.8571,329
11.8583,332
11.8583,336
11.8583,338
11.8583,337
11.8583,336
11.8583,333
11.8583,331
11.8728,328
11.8728,327
11.8728,331
11.8783,337
11.8803,341
11.8823,340
11.8843,337
11.8863,335
11.8884,335
11.8884,334
11.8884,335
11.8884,337
11.8884,338
11.8884,333
11.9018,327
11.9039,326
11.9039,331
11.9081,335
11.9081,336
11.9081,337
11.9081,338
11.9162,337
11.9162,334
11.9199,328
11.9219,326
11.9219,328
11.9219,333
11.9263,336
11.9263,337
11.9263,335
11.9329,334
11.9355,331
11.9376,330
11.9376,329
11.9376,330
11.9376,334
11.9444,338
11.9464,339
11.9484,335
11.9516,331
11.9532,329
11.9552,327
11.9552,328
11.9552,331
11.9552,337
11.9552,343
11.9662,343
11.9669,337
11.9669,330
11.9712,327
11.9732,325
11.975,329
11.977,335
11.979,338
11.9816,336
11.9816,330
11.9816,325
11.9816,320
11.9816,320
11.9909,324
11.9909,328
11.9955,333
11.9976,334
11.9996,331
12.0021,329
12.0021,330
12.0048,329
12.0065,330
12.0065,333
12.0065,336
12.0135,340
12.0156,337
12.0176,331
12.0176,323
12.0219,317
12.0219,315
12.0219,316
12.0219,319
12.0284,326
12.0311,331
12.0341,333
12.0341,332
12.0378,329
12.0378,326
12.0405,321
12.0425,320
12.0445,322
12.0466,324
12.0466,324
12.0514,323
12.0538,324
12.0558,324
12.0558,325
12.0558,328
12.0558,331
12.0558,329
12.0654,326
12.0674,326
12.0694,330
12.0715,331
12.0731,329
12.0747,331
12.0778,337
12.0795,340
12.081,337
12.081,331
12.0851,327
12.0851,326
12.0893,325
12.0893,329
12.0893,337
12.095,343
12.097,343
12.1003,340
12.1003,337
12.1023,335
12.1058,332
12.1078,330
12.1098,331
12.1118,335
12.1138,337
12.1158,335
12.1178,333
12.1198,331
12.1218,329
12.1239,327
12.1259,326
12.1279,326
12.1299,334
12.1317,342
12.1337,343
12.1357,339
12.1377,333
12.1397,327
12.1397,325
12.1397,327
12.1455,333
12.1475,337
12.1475,336
12.1507,329
12.1526,321
12.1526,318
12.1526,319
12.1526,322
12.1526,325
12.1633,329
12.1659,331
12.1659,331
12.1691,327
12.1691,323
12.174,321
12.174,324
12.174,329
12.1786,333
12.1806,334
12.1826,331
12.1846,327
12.1866,324
12.1886,322
12.1906,324
12.1936,328
12.1946,334
12.1967,338
12.1987,339
12.1987,336
12.2025,331
12.2025,326
12.2025,324
12.2025,326
12.2116,332
12.2135,338
12.2143,337
12.2167,331
12.2167,325
12.2167,323
12.2225,326
12.2245,331
12.2262,335
12.2262,335
12.2262,330
12.2262,323
12.2262,321
12.2371,321
12.2371,319
12.2407,318
12.2422,319
12.246,321
12.246,325
12.248,324
12.248,322
12.248,319
12.248,317
12.2579,315
12.2579,316
12.2579,317
12.264,317
12.266,317
12.266,318
12.27,317
12.27,317
12.2737,317
12.2737,316
12.2737,317
12.2737,319
12.2737,320
12.2835,320
12.2855,317
12.2876,313
12.2896,310
12.2916,310
12.2936,313
12.2936,316
12.2936,320
12.2999,325
12.302,328
12.3025,326
12.3053,323
12.3053,317
12.3087,316
12.3108,318
12.3128,323
12.3148,326
12.3148,327
12.3188,323
12.3208,320
12.3229,316
12.3249,315
12.3269,319
12.3288,325
12.3288,328
12.3288,328
12.3288,324
12.3367,317
12.3367,310
12.3419,306
12.3419,306
12.3449,313
12.3469,321
12.3469,328
12.3469,329
12.3527,327
12.3558,324
12.3558,323
12.3601,326
12.3601,331
12.3621,334
12.3658,336
12.3658,332
12.3684,324
12.3684,319
12.3684,318
12.3684,321
12.3684,325
12.3797,331
12.3797,333
12.3797,331
12.3843,324
12.3863,317
12.3884,314
12.3904,317
12.3924,324
12.3944,330
12.3964,333
12.4,332
12.4,329
12.4026,325
12.4026,322
12.408,321
12.408,322
12.408,326
12.408,330
12.4159,333
12.4159,334
12.4159,334
12.4159,331
12.4237,327
12.4257,325
12.4257,324
12.4288,327
12.4317,331
12.4317,333
12.4317,329
12.4369,322
12.4389,313
12.4409,308
12.4429,310
12.4449,317
12.4469,325
12.4491,330
12.4515,336
12.4515,336
12.4515,330
12.4562,323
12.4583,320
12.4603,321
12.4623,322
12.4643,324
12.4668,326
12.4688,329
12.4688,330
12.4688,326
12.4688,323
12.4688,323
12.4781,325
12.4781,329
12.4781,332
12.4781,331
12.4781,327
12.49,323
12.4913,322
12.4938,322
12.4954,325
12.4984,328
12.4984,329
12.502,329
12.5026,331
12.5026,331
12.5026,331
12.5026,329
12.5104,332
12.5104,338
12.5149,340
12.5149,336
12.5195,333
12.5195,329
12.5229,326
12.5249,327
12.5264,331
12.5264,335
12.5264,338
12.5264,338
12.5264,337
12.5264,334
12.5264,330
12.5264,326
12.5424,327
12.546,333
12.5481,338
12.5481,342
12.5517,342
12.5537,339
12.5557,334
12.5577,331
12.5577,329
12.5577,326
12.5577,325
12.5577,325
12.5577,325
12.5692,325
12.5712,326
12.5732,324
12.5753,325
12.5753,330
12.5782,335
12.5782,335
12.5835,330
12.5835,325
12.5835,322
12.5889,321
12.5889,320
12.5889,323
12.5889,329
12.5889,334
12.5889,336
12.5889,333
12.6025,330
12.6046,327
12.6046,323
12.6046,320
12.6103,317
12.6123,320
12.6143,321
12.6163,318
12.6184,318
12.6204,315
12.6224,311
12.6224,310
12.6224,314
12.63,319
12.63,321
12.6335,321
12.6355,319
12.6375,314
12.6395,311
12.6415,309
12.6435,305
12.6455,305
12.6455,305
12.6492,307
12.6513,307
12.6513,306
12.6559,304
12.6579,304
12.6599,303
12.6619,305
12.6639,317
12.6639,321
12.6673,320
12.6673,316
12.6673,312
12.6673,310
12.6673,310
12.6673,309
12.6673,305
12.6673,299
12.6832,294
12.6832,286
12.6832,277
12.6832,270
12.6832,261
12.6924,257
12.6944,253
12.6964,248
12.6984,244
12.7009,239
12.7024,236
12.7044,233
12.7064,230
12.7084,228
12.7104,229
12.7125,230
12.7142,231
12.7142,232
12.7142,234
12.7142,235
12.7142,236
12.7142,236
12.7142,237
12.7299,239
12.7299,241
12.7328,241
12.7349,241
12.7369,241
12.7369,240
12.7369,239
12.7369,239
12.7456,239
12.7456,241
12.7495,243
12.7515,244
12.7535,241
12.7555,238
12.7575,235
12.7596,232
12.7613,230
12.7613,230
12.7613,233
12.7613,233
12.7613,233
12.7716,232
12.7716,231
12.7716,230
12.7775,229
12.7775,227
12.7775,225
12.7775,222
12.7775,220
12.788,218
12.788,215
12.788,213
12.7929,211
12.7929,209
12.7929,207
12.7929,205
12.7929,204
12.8024,203
12.8024,203
12.8024,202
12.8089,201
12.8111,201
12.8131,200
12.8152,200
12.8172,199
12.8192,199
12.8212,199
12.8232,199
12.825,199
12.827,199
12.829,199
12.831,198
12.831,198
12.831,198
12.831,198
12.831,198
12.8409,198
12.8409,198
12.8409,198
12.8409,198
12.8409,198
12.8409,198
12.8409,198
12.8409,198
12.8569,198
12.8569,198
12.8569,198
12.8569,198
12.8569,198
12.8569,198
12.8569,198
12.8569,198
12.8729,198
12.8729,198
12.8729,198
12.8729,198
12.8729,198
12.8835,198
12.8855,198
12.8875,198
12.8886,198
12.8886,198
12.8886,198
12.8886,198
12.8886,197
12.8886,197
12.8886,198
12.9025,198
12.9043,198
12.9043,198
12.9043,198
12.9043,198
12.9043,198
12.9043,197
12.9043,197
12.9043,198
12.9201,198
12.9201,198
12.9201,198
12.9201,198
12.9201,198
12.9201,197
12.9201,198
12.9358,198
12.9358,198
12.9358,198
12.9358,198
12.9358,198
12.9358,198
12.9358,198
12.9358,198
12.9519,198
12.9519,198
12.9519,198
12.9519,198
12.9519,198
12.9519,198
12.9519,197
12.9519,197
12.9676,197
12.9676,197
12.9676,198
12.9676,198
12.9676,198
12.9676,198
12.9676,197
12.9676,197
12.9834,197
12.9834,197
12.9834,197
12.9834,198
12.9834,198
12.9834,198
12.9834,197
12.9834,197
12.9992,197
12.9992,197
13.0028,197
13.0028,198
13.0028,198
13.0028,197
13.0028,197
13.0028,197
13.0158,197
13.0162,197
13.0182,198
13.0182,198
13.0182,198
13.0182,198
13.0182,198
13.0182,197
13.0319,197
13.0319,197
13.0319,197
13.0319,197
13.0396,198
13.0396,198
13.0396,198
13.0396,197
13.048,197
13.0486,197
13.0486,197
13.0486,197
13.0486,198
13.0486,198
13.0486,197
13.0486,197
13.0641,197
13.0641,197
13.0641,197
13.0641,197
13.0719,198
13.0739,198
13.0759,198
13.0779,198
13.0799,197
13.0819,197
13.0839,197
13.0839,197
13.0879,197
13.0899,198
13.0918,198
13.0918,197
13.0961,197
13.0961,197
13.0961,197
13.0961,197
13.1032,197
13.1032,198
13.1032,197
13.1032,198
13.112,197
13.112,197
13.112,197
13.112,197
13.112,198
13.112,198
13.112,198
13.112,198
13.1279,197
13.1305,197
13.1305,197
13.1305,197
13.1305,198
13.1305,198
13.1305,198
13.1305,198
13.1438,198
13.1464,198
13.1464,197
13.1464,197
13.1464,198
13.1464,198
13.1464,198
13.1464,198
13.1599,198
13.1599,198
13.1599,198
13.1599,198
13.1599,198
13.1599,198
13.1599,199
13.1599,199
13.1757,198
13.1786,198
13.1806,198
13.1813,198
13.1813,199
13.1857,199
13.1857,199
13.1857,199
13.1918,199
13.1918,199
13.1918,199
13.1918,199
13.1918,199
13.1918,199
13.2041,199
13.2064,199
13.2085,200
13.2104,200
13.2124,200
13.2144,200
13.2144,200
13.2184,200
13.2204,200
13.2224,200
13.2243,200
13.2243,200
13.2243,200
13.2243,200
13.2243,199
13.2243,199
13.2243,200
13.2243,200
13.2403,200
13.2403,200
13.2445,200
13.2464,199
13.248,199
13.25,199
13.25,199
13.25,199
13.2563,199
13.2585,199
13.2604,199
13.2624,198
13.2644,198
13.2644,198
13.2644,199
13.2644,199
13.2722,199
13.2722,199
13.2743,199
13.2743,199
13.2743,198
13.2822,198
13.2822,198
13.2822,198
13.2882,198
13.2882,198
13.2882,198
13.2882,198
13.2882,198
13.2882,198
13.2882,197
13.2882,197
13.3037,198
13.3037,198
13.3037,198
13.3037,198
13.3037,198
13.3037,197
13.3037,197
13.3037,198
13.3195,198
13.3195,198
13.3195,198
13.3195,198
13.3195,198
13.3195,198
13.3195,198
13.3195,198
13.3357,198
13.3357,198
13.3357,198
13.3357,198
13.3357,198
13.3357,198
13.3357,198
13.3496,198
13.3513,198
13.3536,198
13.3556,199
13.3577,199
13.3597,199
13.3597,199
13.3645,199
13.3645,200
13.3671,201
13.3671,202
13.3706,202
13.3726,203
13.3746,204
13.3777,204
13.3777,205
13.3807,206
13.3836,206
13.3856,206
13.3856,207
13.3887,207
13.3907,207
13.3939,207
13.3959,207
13.3979,207
13.3999,208
13.402,209
13.404,209
13.406,209
13.408,209
13.41,209
13.4121,209
13.4138,210
13.4138,210
13.4138,210
13.4189,209
13.4189,209
13.4189,208
13.4189,207
13.4189,208
13.4295,208
13.4315,210
13.4315,213
13.4315,217
13.4369,217
13.4389,215
13.4389,212
13.4443,211
13.4453,210
13.4453,210
13.449,209
13.451,208
13.451,207
13.4565,205
13.4565,204
13.4565,204
13.4619,203
13.463,202
13.4662,202
13.4678,201
13.4696,201
13.4711,201
13.4727,200
13.4727,200
13.4765,199
13.4765,199
13.4765,199
13.4765,198
13.4855,199
13.4855,199
13.4895,199
13.4895,198
13.4924,198
13.4924,198
13.4965,198
13.4965,198
13.5006,198
13.5006,198
13.5042,198
13.5081,198
13.5081,198
13.5081,198
13.5081,198
13.5161,198
13.5161,198
13.5161,198
13.5214,198
13.5234,198
13.5254,198
13.5275,198
13.5295,198
13.5315,198
13.5335,198
13.5335,198
13.5335,198
13.5396,198
13.5404,198
13.5404,198
13.5445,198
13.5466,198
13.5486,197
13.5486,197
13.5486,198
13.5546,198
13.5566,198
13.5566,197
13.562,197
13.562,197
13.5652,197
13.5652,197
13.5694,197
13.5714,198
13.5714,198
13.5744,198
13.5764,197
13.5764,197
13.5808,197
13.5808,197
13.5808,197
13.5808,197
13.5895,197
13.5895,198
13.5895,197
13.5895,197
13.5977,197
13.5977,197
13.6002,197
13.6002,197
13.6045,197
13.6045,198
13.6045,198
13.6045,197
13.6122,197
13.6143,197
13.6143,197
13.6187,197
13.6187,197
13.6187,197
13.6246,197
13.628,197
13.628,197
13.628,197
13.6332,197
13.6354,197
13.6374,197
13.6395,197
13.6415,197
13.6435,197
13.6435,197
13.6478,197
13.6478,197
13.6478,197
13.6523,197
13.6523,197
13.6523,197
13.6594,197
13.6594,197
13.6632,197
13.6632,197
13.6632,197
13.6632,197
13.6632,197
13.6632,197
13.675,197
13.6779,197
13.6799,197
13.6799,197
13.6838,197
13.6838,197
13.6838,197
13.6899,197
13.6909,197
13.693,197
13.695,197
13.697,197
13.699,197
13.7011,197
13.7011,198
13.706,197
13.707,198
13.707,198
13.7113,197
13.7135,197
13.7135,197
13.7168,197
13.7193,197
13.7193,197
13.7227,197
13.7227,198
13.7265,197
13.7265,197
13.7265,197
13.7337,197
13.7357,197
13.7377,198
13.7388,197
13.7388,198
13.7424,197
13.7424,197
13.7424,197
13.7424,197
13.7424,197
13.7523,197
13.7545,197
13.7565,197
13.7584,197
13.7614,197
13.7614,197
13.7614,197
13.7664,197
13.7664,197
13.7705,197
13.7742,197
13.7758,197
13.7775,197
13.779,197
13.7806,197
13.7821,197
13.7821,197
13.7864,197
13.7864,197
13.7864,197
13.7864,198
13.7864,197
13.7864,197
13.7982,197
13.7982,197
13.8023,197
13.8048,198
13.8068,197
13.8088,198
13.8108,197
13.8129,197
13.8129,197
13.817,197
13.82,197
13.822,197
13.822,198
13.822,198
13.822,197
13.822,197
13.822,197
13.8338,197
13.8338,197
13.8338,198
13.8338,198
13.8338,198
13.8338,197
13.8458,197
13.8468,197
13.8498,197
13.8498,198
13.8533,198
13.8552,198
13.8579,198
13.8599,198
13.8599,198
13.8625,198
13.8655,197
13.8655,197
13.8655,197
13.8655,197
13.8736,198
13.8736,198
13.8736,198
13.8736,197
13.8815,197
13.8815,197
13.8815,197
13.8815,198
13.8886,198
13.8906,198
13.8906,198
13.8906,197
13.8976,197
13.8976,197
13.8976,197
13.9031,197
13.9046,197
13.9046,198
13.9046,198
13.9046,197
13.9138,197
13.9143,197
13.9143,197
13.9143,198
13.9143,198
13.9143,198
13.9143,198
13.9143,198
13.9292,198
13.9292,197
13.9292,198
13.9292,197
13.9292,198
13.9292,198
13.9292,198
13.9292,198
13.9452,198
13.9477,198
13.9498,198
13.9518,198
13.9538,198
13.9558,198
13.9578,198
13.9598,198
13.9618,198
13.9638,198
13.9638,198
13.9678,198
13.9699,198
13.9719,198
13.9719,198
13.9719,198
13.9779,198
13.9779,198
13.9779,198
13.9779,198
13.9779,198
13.9779,198
13.9779,198
13.9779,198
13.9941,198
13.9958,198
13.9978,198
13.9978,198
14.0019,198
14.0045,198
14.0045,198
14.0045,198
14.0099,198
14.0099,198
14.0099,198
14.0099,198
14.0099,198
14.0099,198
14.0099,198
14.0099,199
14.0259,199
14.0259,199
14.0259,199
14.0259,198
14.0259,198
14.0259,198
14.0259,198
14.0259,198
14.0419,198
14.0419,199
14.0419,198
14.0419,198
14.0419,198
14.0419,198
14.0419,198
14.0419,198
14.0578,199
14.0604,198
14.0624,198
14.0645,198
14.0645,198
14.0645,199
14.0645,199
14.0645,200
14.0748,200
14.0753,200
14.0753,200
14.0753,200
14.0822,199
14.084,199
14.0864,200
14.0884,200
14.0904,200
14.0924,200
14.0945,200
14.0964,200
14.0987,200
14.0987,201
14.1019,202
14.105,202
14.1065,203
14.1085,204
14.1104,204
14.1124,204
14.1141,203
14.1141,203
14.1141,203
14.1141,203
14.1141,203
14.1141,203
14.1141,203
14.1141,203
14.1303,203
14.1313,203
14.1344,203
14.1365,203
14.1384,203
14.1404,203
14.1424,203
14.1424,203
14.1462,203
14.148,203
14.15,203
14.15,203
14.15,203
14.15,203
14.15,203
14.15,203
14.1622,203
14.1622,203
14.1622,203
14.1622,204
14.1622,204
14.1622,205
14.1622,205
14.1622,206
14.1782,206
14.1797,206
14.1797,206
14.1797,206
14.1797,206
14.1797,206
14.1797,207
14.1797,206
14.1942,206
14.1965,206
14.1965,206
14.1965,206
14.1965,206
14.1965,206
14.205,206
14.2092,206
14.2103,205
14.2103,205
14.2103,205
14.2103,205
14.2103,205
14.2103,205
14.2103,205
14.2103,205
14.2262,205
14.2284,205
14.2304,205
14.2312,205
14.2344,205
14.2344,205
14.2344,205
14.2344,205
14.2423,205
14.2444,205
14.2454,205
14.2454,204
14.2454,204
14.2454,205
14.2454,205
14.2454,205
14.2584,205
14.2605,205
14.2624,205
14.2644,205
14.2644,205
14.2685,205
14.2704,205
14.2725,205
14.2744,205
14.2764,205
14.2764,205
14.2764,205
14.2764,205
14.2764,206
14.2764,206
14.2764,205
14.2906,205
14.2906,205
14.2906,205
14.2906,205
14.2906,204
14.2906,205
14.2906,205
14.2906,205
14.3066,205
14.3084,205
14.3104,205
14.3125,205
14.3144,204
14.3144,205
14.3144,205
14.3144,205
14.3226,206
14.3226,206
14.3246,206
14.3246,207
14.3246,209
14.3246,209
14.3246,209
14.3246,209
14.3386,209
14.3405,210
14.3425,211
14.3445,212
14.3465,215
14.3479,219
14.3499,224
14.3499,226
14.3545,230
14.3545,232
14.3545,235
14.3545,237
14.3545,241
14.3545,248
14.3545,252
14.3545,255
14.3703,256
14.3703,258
14.3703,260
14.3703,263
14.3703,271
14.3703,277
14.3703,286
14.3703,299
14.3865,307
14.3865,309
14.3865,307
14.3865,303
14.3865,303
14.3865,306
14.3865,311
14.3865,307
14.4024,304
14.4044,303
14.4064,302
14.4064,299
14.4064,295
14.4064,293
14.4162,293
14.4162,295
14.417,298
14.4185,301
14.4185,304
14.4185,305
14.4185,307
14.4185,309
14.4185,311
14.4185,311
14.4344,308
14.4364,305
14.4364,302
14.4364,301
14.4364,302
14.4364,305
14.4364,307
14.4364,309
14.4504,308
14.4524,309
14.4544,308
14.4564,303
14.4584,299
14.4604,297
14.4604,298
14.4604,302
14.4604,306
14.4681,310
14.4706,310
14.4726,307
14.4746,302
14.4746,298
14.4746,295
14.4746,294
14.4746,296
14.4826,298
14.4826,301
14.4826,302
14.4826,303
14.4826,304
14.4826,305
14.4826,305
14.4826,305
14.4987,308
14.4987,312
14.4987,313
14.5067,315
14.5067,322
14.5067,319
14.5067,321
14.5147,326
14.5147,328
14.5181,328
14.5181,326
14.5181,324
14.5181,322
14.5181,317
14.5181,316
14.5308,317
14.5308,318
14.5336,319
14.5336,319
14.5336,317
14.5336,316
14.5336,313
14.5336,313
14.5469,317
14.5469,322
14.5469,321
14.5469,318
14.5469,316
14.5469,315
14.5469,315
14.5469,314
14.5629,316
14.5629,320
14.5629,324
14.5629,326
14.5629,324
14.5629,317
14.5629,311
14.5629,307
14.5788,306
14.5799,309
14.5815,313
14.584,316
14.5864,316
14.5864,315
14.5864,316
14.5864,317
14.5946,319
14.5946,320
14.5946,319
14.5946,315
14.5946,309
14.5946,304
14.5946,303
14.6071,304
14.6107,308
14.6117,313
14.6153,318
14.6153,322
14.6191,319
14.6199,315
14.6224,313
14.6244,312
14.6264,310
14.6284,309
14.6305,312
14.6305,317
14.634,322
14.634,325
14.634,324
14.634,320
14.634,312
14.6445,308
14.6445,308
14.6445,311
14.6445,314
14.6445,315
14.6445,311
14.6445,306
14.6445,302
14.6605,300
14.6605,302
14.6605,306
14.6605,311
14.6605,313
14.6605,312
14.6605,310
14.6605,306
14.6766,301
14.6766,298
14.6766,301
14.6766,305
14.6766,310
14.6766,311
14.6766,308
14.6766,305
14.6925,299
14.6946,293
14.6966,293
14.6979,294
14.6999,293
14.6999,291
14.6999,293
14.6999,293
14.7086,297
14.7086,297
14.7086,304
14.7086,307
14.7086,311
14.7086,311
14.7086,306
14.7086,302
14.7246,302
14.7264,301
14.7284,302
14.7304,305
14.7312,308
14.7345,310
14.7364,310
14.7384,309
14.7404,304
14.7404,299
14.7404,295
14.7404,298
14.7404,301
14.7404,306
14.7404,303
14.7404,299
14.7565,297
14.7565,297
14.7565,296
14.7565,294
14.7645,294
14.7645,296
14.7645,290
14.7645,287
14.7725,286
14.7725,284
14.7745,282
14.7784,281
14.7804,282
14.7813,283
14.7845,288
14.7864,289
14.7884,289
14.7905,289
14.7905,289
14.7905,288
14.7905,288
14.7905,290
14.7905,293
14.7905,294
14.8045,293
14.8045,291
14.8072,290
14.8072,288
14.8072,290
14.8072,292
14.8072,294
14.8072,295
14.8215,297
14.8215,295
14.8242,290
14.8259,287
14.8288,287
14.8305,288
14.8305,289
14.8323,290
14.8364,290
14.8364,290
14.8364,292
14.8437,293
14.8437,294
14.8437,296
14.8437,299
14.8437,302
14.8521,300
14.8521,298
14.8559,294
14.8579,292
14.8599,293
14.862,294
14.8639,295
14.8639,296
14.8681,299
14.8701,300
14.8701,301
14.8701,301
14.8701,305
14.8701,305
14.8701,307
14.8701,305
14.884,304
14.8859,301
14.8879,299
14.89,296
14.8919,295
14.8919,297
14.8919,301
14.8919,306
14.9012,311
14.902,312
14.904,310
14.9059,303
14.9079,298
14.9099,295
14.9119,296
14.9119,298
14.9159,303
14.918,305
14.9199,306
14.922,304
14.922,301
14.922,297
14.922,293
14.922,292
14.9319,296
14.9319,300
14.9319,301
14.9319,300
14.9319,298
14.9319,294
14.9319,291
14.9319,290
14.9492,291
14.9492,293
14.9519,294
14.9519,294
14.9519,293
14.9519,292
14.9519,291
14.9519,290
14.9642,289
14.9659,289
14.9685,289
14.9704,284
14.9725,280
14.9744,275
14.9744,269
14.9744,262
14.9802,256
14.9812,248
14.9812,241
14.9812,235
14.9812,230
14.9812,226
14.9812,221
14.9812,218
14.9963,215
14.9979,212
14.9999,210
14.9999,208
14.9999,207
14.9999,205
15.0082,204
15.0082,203
15.0125,203
15.0125,202
15.0125,201
15.0125,201
15.0125,200
15.0125,200
15.0125,200
15.0125,199
15.0285,199
15.0285,199
15.0318,199
15.0338,199
15.0355,199
15.0389,199
15.0406,199
15.0419,199
15.0445,198
15.0445,198
15.0479,198
15.0479,198
15.0479,198
15.0479,198
15.0479,198
15.0479,198
15.0606,198
15.0606,198
15.0606,198
15.0606,198
15.0606,198
15.0606,198
15.0606,198
15.0606,198
15.0765,198
15.078,198
15.0799,198
15.0814,197
15.084,198
15.084,198
15.084,198
15.084,198
15.0926,198
15.0926,198
15.0926,198
15.0926,198
15.0996,198
15.1016,198
15.1036,198
15.1057,198
15.1082,198
15.1102,198
15.1102,198
15.1102,198
15.1102,198
15.1167,197
15.1167,198
15.1167,198
15.124,198
15.124,198
15.124,198
15.124,198
15.124,198
15.124,198
15.124,198
15.124,198
15.1416,198
15.1416,198
15.1445,198
15.1445,198
15.1445,198
15.1498,198
15.1524,198
15.1539,198
15.1559,198
15.1584,198
15.16,198
15.16,198
15.1639,198
15.1657,198
15.1657,198
15.1657,198
15.1657,198
15.1743,198
15.1743,198
15.1743,198
15.1743,197
15.1743,197
15.1743,197
15.1743,197
15.1743,198
15.1902,198
15.1902,198
15.1902,198
15.1902,198
15.1902,197
15.1902,197
15.1902,197
15.1902,197
15.2063,198
15.2079,198
15.2105,198
15.2124,198
15.2145,197
15.2145,197
15.2184,197
15.2204,197
15.2224,198
15.2224,198
15.2224,198
15.2224,198
15.2224,197
15.2332,197
15.2332,197
15.2332,197
15.2385,197
15.2404,198
15.2424,198
15.2444,197
15.2464,197
15.2479,197
15.2499,197
15.2524,197
15.2545,198
15.2564,198
15.2584,198
15.2604,198
15.2624,198
15.2645,197
15.2645,197
15.2645,197
15.2705,197
15.2722,198
15.2722,198
15.2722,198
15.2722,198
15.2722,197
15.2722,197
15.2722,197
15.2867,197
15.2867,197
15.2867,198
15.2867,198
15.2867,197
15.2867,197
15.2867,197
15.2867,197
15.3029,197
15.3029,197
15.3064,197
15.3086,197
15.3086,198
15.3086,198
15.3086,198
15.3086,197
15.3187,197
15.3187,197
15.3187,197
15.3187,198
15.3187,198
15.3187,197
15.3187,197
15.3187,197
15.3345,197
15.3345,197
15.3345,197
15.3345,198
15.3345,198
15.3345,198
15.3345,197
15.3345,197
15.3503,197
15.3528,197
15.3528,197
15.3528,198
15.3528,198
15.3528,198
15.3528,197
15.3528,197
15.3662,197
15.3684,197
15.3704,197
15.3704,197
15.3704,198
15.3704,198
15.3704,197
15.3704,197
15.382,197
15.384,197
15.3861,197
15.3885,198
15.3885,198
15.3885,198
15.3885,198
15.3885,197
15.3979,197
15.3999,197
15.3999,197
15.3999,197
15.3999,198
15.4087,198
15.4087,198
15.4087,197
15.4138,197
15.4138,197
15.4185,197
15.4204,197
15.4225,197
15.4225,198
15.4225,198
15.4225,197
15.4298,197
15.4314,197
15.434,197
15.4347,197
15.4347,197
15.4347,197
15.4347,198
15.4347,197
15.4459,197
15.4459,197
15.4459,197
15.4459,197
15.4459,197
15.4459,198
15.4459,198
15.4459,198
15.4619,198
15.4619,197
15.4661,197
15.4661,197
15.4661,197
15.4661,197
15.4661,198
15.4661,198
15.478,197
15.478,197
15.478,197
15.478,197
15.478,197
15.478,197
15.478,197
15.478,197
15.494,197
15.4965,197
15.4965,197
15.4965,197
15.4965,197
15.4965,197
15.4965,197
15.5087,197
15.5099,197
15.5099,197
15.5099,197
15.5099,197
15.5099,197
15.5099,197
15.5099,197
15.5099,197
15.5257,198
15.528,198
15.5306,197
15.5311,197
15.5311,197
15.5311,197
15.5311,197
15.5311,197
15.5417,197
15.5417,198
15.5417,197
15.5417,197
15.5417,197
15.5417,197
15.5417,197
15.5417,198
15.5578,197
15.5595,198
15.5616,197
15.5636,197
15.5656,197
15.5676,197
15.5696,197
15.5716,197
15.5736,197
15.5736,198
15.5736,197
15.5736,197
15.5736,197
15.5736,197
15.5736,197
15.5736,197
15.5898,197
15.5925,198
15.5944,197
15.5964,197
15.5979,197
15.6,197
15.6024,197
15.6024,197
15.6057,197
15.6085,198
15.6093,197
15.6093,197
15.6093,197
15.6093,197
15.6093,197
15.6093,197
15.6217,197
15.6217,197
15.6217,197
15.6217,197
15.6217,197
15.6322,197
15.6322,197
15.6322,197
15.6378,197
15.6404,197
15.643,197
15.643,197
15.645,197
15.647,197
15.649,197
15.651,197
15.654,197
15.6564,197
15.6564,197
15.6564,197
15.6564,197
15.6564,197
15.6564,197
15.6689,197
15.6703,197
15.6725,197
15.6744,198
15.6764,198
15.6785,198
15.6804,197
15.6804,197
15.6844,197
15.6864,197
15.6884,197
15.6905,198
15.6924,198
15.6944,198
15.6965,197
15.6986,197
15.6986,197
15.6986,197
15.6986,197
15.7066,197
15.7084,197
15.711,197
15.7124,197
15.7144,197
15.7144,197
15.7185,197
15.7204,197
15.7224,197
15.7224,197
15.7224,197
15.7224,197
15.7224,197
15.7224,197
15.7224,197
15.7224,197
15.7385,197
15.7385,197
15.7385,197
15.7385,197
15.7385,197
15.7385,197
15.7385,197
15.7385,197
15.7545,197
15.7565,197
15.7584,197
15.7605,198
15.7605,198
15.7605,197
15.7605,197
15.7605,197
15.7705,197
15.7705,197
15.7705,197
15.7705,198
15.7705,197
15.7705,197
15.7705,197
15.7705,197
15.7865,197
15.7865,197
15.7905,197
15.7905,197
15.7905,197
15.7905,197
15.7905,197
15.7905,197
15.8024,197
15.8024,197
15.8024,197
15.8024,197
15.8109,197
15.8109,197
15.8109,197
15.8109,197
15.8183,197
15.8183,197
15.8183,197
15.8183,198
15.8183,198
15.8183,198
15.8183,197
15.8183,197
15.8341,197
15.8366,197
15.8386,197
15.8406,197
15.8426,197
15.8426,197
15.8426,197
15.8426,197
15.8502,197
15.8529,197
15.8529,197
15.8529,197
15.8529,197
15.8529,198
15.8529,197
15.8529,197
15.8662,197
15.8684,197
15.8703,197
15.8703,197
15.8703,198
15.8703,198
15.8703,197
15.8703,197
15.8822,197
15.8822,197
15.8861,197
15.8886,197
15.8886,197
15.8886,198
15.8886,197
15.8886,197
15.8982,197
15.8982,197
15.8982,197
15.8982,197
15.8982,197
15.8982,198
15.8982,197
15.9112,197
15.9141,197
15.9141,197
15.9141,197
15.9141,197
15.9141,197
15.9141,197
15.9141,197
15.9141,197
15.9304,197
15.9304,197
15.9304,197
15.9304,197
15.9304,197
15.9304,198
15.9304,197
15.9304,197
15.9464,197
15.9464,197
15.9464,197
15.9464,197
15.9464,197
15.9464,197
15.9464,197
15.9464,198
15.9624,198
15.9644,197
15.9644,197
15.9685,197
15.9704,197
15.9724,197
15.9744,198
15.9764,197
15.9784,197
15.9804,197
15.9812,197
15.9845,197
15.9864,198
15.9884,198
15.9904,198
15.9924,198
15.9942,197
15.9942,197
15.9942,197
15.9942,197
15.9942,197
15.9942,197
15.9942,198
15.9942,198
16.0102,198
16.013,197
16.0144,198
16.0158,197
16.0184,197
16.0204,197
16.0224,197
16.0224,198
16.0262,198
16.0286,198
16.0305,198
16.0305,197
16.0305,197
16.0305,197
16.0305,197
16.0305,197
16.0424,198
16.044,197
16.0455,197
16.0455,197
16.0455,197
16.0455,197
16.0455,197
16.0455,198
16.0583,198
16.0603,198
16.0624,197
16.0624,197
16.0624,197
16.0624,197
16.0624,197
16.0624,197
16.0744,198
16.0744,198
16.0744,198
16.0744,197
16.0744,197
16.0744,197
16.0744,197
16.0744,197
16.0903,198
16.0915,197
16.0915,197
16.0915,197
16.0915,197
16.0915,197
16.0915,197
16.0915,197
16.1064,197
16.1079,197
16.1104,197
16.113,197
16.1145,197
16.1145,197
16.1185,197
16.1185,197
16.1224,197
16.1224,197
16.1245,197
16.1245,197
16.1245,197
16.1245,197
16.1245,197
16.1245,197
16.1385,197
16.1401,197
16.1424,197
16.1444,197
16.1465,197
16.1479,197
16.1499,197
16.1499,197
16.1546,197
16.1566,197
16.1566,197
16.1566,197
16.1566,197
16.1566,197
16.1566,197
16.1566,197
16.1708,197
16.1708,197
16.1728,198
16.1748,197
16.1769,197
16.1789,197
16.1812,197
16.184,197
16.1864,197
16.1864,197
16.1864,197
16.1864,198
16.1864,198
16.1864,197
16.1864,197
16.1864,197
16.2024,197
16.2042,197
16.2048,197
16.2084,197
16.2102,197
16.2121,197
16.2139,197
16.2155,197
16.2185,197
16.2205,197
16.2221,198
16.2238,198
16.2238,198
16.2266,197
16.2266,197
16.2317,197
16.2327,197
16.2327,197
16.2327,197
16.2327,198
16.2327,198
16.2327,198
16.2327,198
16.2498,197
16.2498,197
16.252,197
16.2539,197
16.2555,197
16.2572,197
16.2572,197
16.2572,198
16.2638,197
16.2638,197
16.2638,197
16.2638,197
16.2638,197
16.2638,197
16.2638,197
16.2638,197
16.2798,197
16.2818,197
16.2839,197
16.2859,197
16.2879,197
16.29,197
16.29,197
16.29,197
16.296,197
16.296,197
16.296,197
16.296,197
16.296,197
16.296,197
16.296,197
16.296,198
16.312,197
16.313,197
16.313,197
16.313,197
16.313,197
16.313,197
16.313,197
16.313,197
16.3287,197
16.3293,197
16.3293,197
16.3293,197
16.3293,197
16.3293,197
16.3293,197
16.3293,197
16.3439,197
16.3439,197
16.3439,197
16.3439,197
16.3439,197
16.3439,197
16.3439,197
16.3439,197
16.3599,197
16.3625,197
16.3625,197
16.3625,197
16.3625,197
16.3625,197
16.3625,197
16.3625,197
16.3758,197
16.3784,197
16.3804,197
16.3804,197
16.3844,197
16.3844,197
16.3844,197
16.3844,197
16.3918,197
16.3929,197
16.3965,197
16.3979,197
16.3999,197
16.4024,197
16.4044,197
16.4044,197
16.4078,197
16.4099,197
16.4119,197
16.4136,197
16.4136,197
16.4136,197
16.4136,197
16.4136,197
16.4238,197
16.4238,197
16.4238,197
16.4238,197
16.4238,197
16.4238,197
16.4238,197
16.4238,197
16.4398,197
16.4424,198
16.4443,197
16.4461,197
16.4484,197
16.4494,197
16.4511,197
16.4511,197
16.4559,197
16.4559,197
16.4559,197
16.4622,197
16.4622,197
16.4622,197
16.4622,197
16.4622,197
16.4718,197
16.4739,198
16.4759,197
16.478,197
16.478,197
16.478,197
16.478,197
16.478,197
16.488,197
16.4899,197
16.4919,197
16.4919,197
16.4919,197
16.4919,197
16.4996,197
16.4996,197
16.5038,197
16.5059,197
16.5079,197
16.5099,197
16.5099,197
16.5137,197
16.5137,197
16.5137,197
16.5197,197
16.522,197
16.522,197
16.522,197
16.522,197
16.522,197
16.522,197
16.522,197
16.5359,197
16.5379,197
16.54,197
16.54,197
16.54,197
16.54,197
16.54,197
16.5496,197
16.5518,197
16.5518,197
16.5518,197
16.5518,197
16.5518,197
16.5518,197
16.5518,197
16.5518,197
16.5691,197
16.5704,197
16.5716,197
16.5733,197
16.5733,197
16.5733,197
16.5733,197
16.5733,197
16.5838,197
16.5838,197
16.5838,197
16.5838,197
16.5838,197
16.5838,197
16.5838,197
16.5838,197
16.5995,197
16.6022,197
16.604,197
16.606,197
16.6079,197
16.61,197
16.6119,197
16.6148,197
16.6148,197
16.6148,197
16.6148,197
16.6148,197
16.6148,197
16.6148,197
16.6148,197
16.633,197
16.633,197
16.633,197
16.6359,197
16.6379,197
16.64,197
16.642,198
16.642,197
16.6467,197
16.6467,197
16.6495,197
16.6495,197
16.6539,197
16.656,197
16.6579,197
16.6599,197
16.662,197
16.664,197
16.6678,197
16.6678,197
16.67,197
16.6719,197
16.674,197
16.674,197
16.6779,197
16.6799,197
16.6799,197
16.6799,197
16.6799,197
16.6799,197
16.6799,197
16.6799,197
16.6947,197
16.6952,197
16.6952,197
16.6994,197
16.6994,197
16.6994,197
16.6994,197
16.6994,197
16.7099,197
16.7099,197
16.7099,197
16.7151,197
16.7151,197
16.7151,197
16.7151,197
16.7151,197
16.7258,197
16.7277,197
16.7277,197
16.7277,197
16.7339,197
16.7364,197
16.7384,197
16.7384,197
16.7425,197
16.7444,197
16.7464,197
16.7478,197
16.7492,197
16.7492,197
16.7492,197
16.7492,197
16.7583,197
16.7604,197
16.7604,197
16.7604,197
16.7604,197
16.7604,197
16.7604,197
16.7604,197
16.7743,197
16.7764,197
16.7784,197
16.7804,197
16.7812,197
16.7844,197
16.7844,197
16.7844,197
16.7903,197
16.7903,197
16.7939,197
16.7965,197
16.7979,197
16.7979,197
16.7979,197
16.7979,197
16.8064,197
16.8064,197
16.8064,197
16.8064,197
16.8151,197
16.8151,197
16.8184,197
16.8184,197
16.8223,197
16.8223,197
16.8223,197
16.8223,197
16.8223,197
16.8322,197
16.8342,197
16.8362,197
16.838,197
16.838,197
16.838,197
16.838,197
16.838,197
16.838,197
16.838,197
16.838,197
16.8539,197
16.8565,197
16.8565,197
16.8565,197
16.8565,197
16.8565,197
16.8565,197
16.8565,197
16.8697,197
16.8697,197
16.8697,197
16.8697,197
16.8697,197
16.8697,197
16.882,197
16.882,197
16.886,197
16.886,197
16.886,197
16.886,197
16.886,197
16.886,197
16.886,197
16.886,197
16.9021,197
16.9045,197
16.9065,197
16.9065,197
16.9065,197
16.9065,197
16.9065,197
16.9151,197
16.9179,197
16.9179,197
16.922,197
16.9239,197
16.9257,197
16.9275,197
16.9295,197
16.9313,197
16.9339,197
16.9365,197
16.9365,197
16.9365,197
16.9365,198
16.9365,198
16.9448,197
16.9481,197
16.9497,197
16.9497,197
16.9497,197
16.9497,197
16.9497,197
16.9497,198
16.9497,197
16.9497,197
16.9656,197
16.9656,197
16.9656,197
16.9656,197
16.9656,197
16.9656,198
16.9656,198
16.9656,197
16.9814,197
16.9839,197
16.9859,197
16.9879,197
16.99,197
16.992,197
16.992,197
16.992,197
16.9972,197
16.9992,197
16.9992,197
16.9992,197
16.9992,197
16.9992,197
16.9992,198
17.0128,198
17.0128,197
17.0154,197
17.0174,197
17.0174,197
17.0174,197
17.0174,197
17.0174,197
17.0286,197
17.0286,197
17.0286,197
17.0286,197
17.0286,197
17.0286,197
17.0286,197
17.0286,197
17.0447,197
17.0447,197
17.0467,197
17.0467,197
17.0467,197
17.0467,197
17.0467,197
17.0467,197
17.0609,198
17.0615,197
17.0615,197
17.0615,197
17.0615,197
17.0615,197
17.0615,198
17.0615,197
17.0766,197
17.0766,197
17.0786,197
17.0786,197
17.0786,197
17.0786,197
17.0786,197
17.0786,197
17.0925,198
17.0925,197
17.0925,197
17.0925,197
17.0925,197
17.0925,197
17.0925,197
17.0925,197
17.1085,198
17.1085,197
17.1085,197
17.1085,197
17.116,197
17.118,197
17.12,197
17.1221,197
17.1241,197
17.1261,197
17.1261,197
17.1261,197
17.1261,197
17.1261,197
17.1261,197
17.1261,197
17.1403,197
17.1403,197
17.1403,197
17.1403,197
17.1403,197
17.1403,197
17.1403,197
17.1403,197
17.1563,197
17.1584,198
17.1604,198
17.1624,198
17.1644,197
17.1644,197
17.1684,197
17.1684,197
17.1722,197
17.1722,197
17.1722,197
17.1722,197
17.1722,197
17.1822,197
17.1822,197
17.1822,197
17.1883,197
17.1883,198
17.1925,198
17.1944,198
17.1964,197
17.1979,197
17.1999,197
17.1999,197
17.2042,197
17.2064,197
17.2064,197
17.2064,198
17.2064,197
17.2064,197
17.2156,197
17.2156,197
17.22,197
17.22,198
17.22,198
17.22,198
17.22,198
17.22,197
17.2322,197
17.2322,197
17.2363,197
17.2384,197
17.2405,198
17.2424,198
17.2444,198
17.2444,197
17.2444,197
17.2444,197
17.2533,197
17.254,197
17.2564,197
17.2584,197
17.2604,198
17.2624,198
17.2653,197
17.2653,197
17.2684,197
17.2704,197
17.2725,197
17.2746,198
17.2766,198
17.2786,198
17.2801,198
17.2828,197
17.2839,197
17.2839,197
17.2839,197
17.2903,197
17.2903,198
17.2903,198
17.2903,198
17.2903,197
17.2903,197
17.2903,197
17.2903,197
17.3063,198
17.3084,198
17.3105,198
17.3124,198
17.3124,197
17.3156,197
17.3156,197
17.3156,197
17.3223,197
17.3223,197
17.3223,198
17.3223,198
17.3223,197
17.3322,197
17.3322,197
17.3322,197
17.3382,197
17.3382,198
17.3382,198
17.3382,198
17.3382,197
17.3382,197
17.3382,197
17.3382,197
17.3542,197
17.3542,198
17.3542,198
17.3542,198
17.3542,198
17.3542,198
17.3542,197
17.3542,197
17.37,197
17.37,198
17.37,198
17.37,198
17.37,198
17.37,197
17.3822,197
17.3822,197
17.3863,197
17.3884,197
17.3904,198
17.3904,198
17.3904,198
17.3904,198
17.3904,197
17.3904,197
17.4024,197
17.4044,197
17.4064,198
17.4084,198
17.4104,198
17.4124,198
17.4144,197
17.4158,197
17.4185,197
17.4185,197
17.4185,197
17.4185,197
17.4185,198
17.4185,198
17.4185,197
17.4322,197
17.4344,197
17.4365,197
17.4385,197
17.4404,198
17.4424,198
17.4444,198
17.4444,198
17.4444,197
17.4503,197
17.4524,197
17.4524,197
17.4524,198
17.4524,198
17.4524,198
17.4524,198
17.4524,197
17.4661,197
17.4661,197
17.4661,197
17.4661,198
17.4661,198
17.4661,198
17.4661,198
17.4661,197
17.482,197
17.4845,197
17.486,197
17.486,197
17.486,197
17.486,198
17.486,197
17.486,197
17.498,197
17.498,197
17.498,197
17.498,197
17.498,197
17.498,197
17.498,197
17.498,197
17.5142,197
17.5142,197
17.5163,197
17.5163,197
17.5163,197
17.5163,197
17.5163,197
17.5163,197
17.5302,197
17.5312,197
17.5345,197
17.5364,197
17.5384,197
17.5404,197
17.5424,197
17.5444,197
17.5464,197
17.5479,197
17.55,197
17.5525,197
17.5525,197
17.5525,197
17.5525,197
17.5525,197
17.5626,197
17.5638,197
17.5649,197
17.568,197
17.5699,197
17.5718,197
17.5736,197
17.5736,198
17.5785,197
17.5805,197
17.5805,197
17.5805,197
17.5805,197
17.5805,197
17.5805,197
17.5805,197
17.5943,197
17.5943,197
17.5943,197
17.5943,197
17.5943,197
17.5943,197
17.5943,197
17.5943,197
17.6103,198
17.6119,198
17.6139,198
17.6165,197
17.6165,197
17.6165,197
17.6165,198
17.6165,198
17.6263,198
17.6283,198
17.6283,198
17.6283,197
17.6283,197
17.6283,197
17.6283,198
17.6283,198
17.6423,198
17.6444,198
17.6444,198
17.6444,198
17.6444,197
17.6444,198
17.6444,198
17.6444,198
17.6583,198
17.6583,198
17.6619,198
17.6639,198
17.6639,198
17.6639,197
17.6639,198
17.6639,198
17.6742,198
17.6742,198
17.6779,198
17.6779,198
17.6779,197
17.6779,197
17.6779,197
17.6779,197
17.6907,198
17.6919,198
17.694,198
17.694,198
17.694,197
17.6996,197
17.6996,197
17.6996,198
17.7063,198
17.7084,198
17.7084,198
17.7084,198
17.7084,197
17.7084,197
17.7167,197
17.7167,197
17.7224,197
17.7224,198
17.7224,198
17.7224,198
17.7224,198
17.7224,197
17.7224,197
17.7224,197
17.7382,197
17.7404,197
17.7404,198
17.7404,197
17.7404,197
17.7404,197
17.7404,197
17.7404,197
17.7543,197
17.7561,197
17.7584,197
17.7604,197
17.7604,197
17.7604,197
17.7604,197
17.7604,197
17.7704,197
17.7719,197
17.7744,197
17.7764,197
17.7764,197
17.7764,197
17.7822,197
17.7822,197
17.7873,197
17.788,197
17.788,197
17.788,197
17.788,197
17.788,197
17.7988,197
17.7988,197
17.8019,197
17.8044,197
17.8064,197
17.8084,197
17.8105,197
17.8125,197
17.8158,197
17.8168,197
17.8179,197
17.8204,197
17.8225,197
17.8225,197
17.8225,197
17.8225,197
17.8306,197
17.8306,197
17.8344,197
17.8364,197
17.8364,197
17.8364,197
17.8364,197
17.8364,197
17.8466,197
17.8466,197
17.8466,197
17.8466,197
17.8466,197
17.8466,197
17.8466,197
17.8466,197
17.8626,197
17.8626,197
17.8656,197
17.8656,197
17.8656,197
17.8656,197
17.8656,198
17.8656,198
17.8787,197
17.8805,197
17.8805,197
17.8844,197
17.8844,197
17.8844,197
17.8844,197
17.8844,197
17.8946,198
17.8946,198
17.8946,197
17.8999,197
17.9024,197
17.9044,197
17.9064,198
17.9085,198
17.9106,198
17.9124,198
17.9145,198
17.9145,198
17.9175,197
17.9175,197
17.9175,198
17.9175,198
17.9267,198
17.9267,198
17.9267,198
17.9267,198
17.9267,198
17.9267,198
17.9267,198
17.9267,198
17.9427,198
17.9427,198
17.9427,198
17.9427,198
17.9427,198
17.9427,198
17.9427,198
17.9427,198
17.9586,198
17.9586,198
17.9586,198
17.9586,198
17.9586,198
17.9586,198
17.9586,198
17.9586,198
17.9746,198
17.9746,198
17.9746,198
17.9746,198
17.9746,198
17.9746,198
17.9746,198
17.9746,198
17.9906,198
17.9906,198
17.9906,198
17.9906,198
17.9906,198
17.9906,198
17.9906,198
17.9906,198
18.0066,198
18.0085,198
18.0085,198
18.0085,198
18.0085,198
18.0085,197
18.0178,197
18.0178,197
18.0225,198
18.0225,198
18.0225,198
18.0225,198
18.0225,198
18.0322,197
18.0322,197
18.0322,197
18.0385,197
18.0404,197
18.0404,197
18.0404,197
18.0404,197
18.0404,197
18.0404,197
18.0404,197
18.0545,197
18.0559,197
18.0584,197
18.0604,197
18.0624,197
18.0645,197
18.0645,197
18.0685,197
18.0704,197
18.0726,197
18.0746,197
18.0766,197
18.0766,197
18.0766,197
18.0766,197
18.0766,197
18.0867,197
18.0867,197
18.0867,197
18.0867,197
18.0867,197
18.0867,197
18.0867,197
18.0999,197
18.1025,197
18.1025,197
18.1025,197
18.1025,197
18.1025,198
18.1025,197
18.1025,197
18.1025,197
18.1183,197
18.1183,197
18.1204,197
18.1225,197
18.1245,197
18.1265,197
18.1285,197
18.1285,197
18.1342,197
18.1342,197
18.1342,197
18.1342,197
18.1342,197
18.1342,197
18.1342,197
18.1342,197
18.1503,197
18.1503,197
18.1541,197
18.1564,197
18.1564,197
18.1564,197
18.1564,197
18.1564,197
18.1661,197
18.1685,197
18.1704,197
18.1724,197
18.1744,197
18.1764,197
18.1764,197
18.1764,197
18.182,197
18.1845,197
18.1845,197
18.1845,197
18.1845,197
18.1845,197
18.1845,197
18.1845,197
18.1981,197
18.1998,197
18.2018,197
18.2039,197
18.206,197
18.2084,197
18.2099,197
18.2099,197
18.214,197
18.214,197
18.2185,197
18.2185,197
18.2185,197
18.2185,197
18.2185,197
18.2185,197
18.23,197
18.231,197
18.231,197
18.231,197
18.231,197
18.231,197
18.231,197
18.231,197
18.2462,197
18.2479,197
18.2479,197
18.2479,197
18.2479,197
18.2479,197
18.2479,197
18.2479,197
18.2622,197
18.2622,197
18.2622,197
18.2622,197
18.2622,197
18.2622,197
18.2622,197
18.2622,197
18.2782,197
18.2782,197
18.2782,197
18.2782,197
18.2782,197
18.2782,197
18.2782,197
18.2782,197
18.2942,197
18.2942,197
18.2942,197
18.2942,197
18.2942,197
18.2942,197
18.2942,197
18.2942,197
18.3102,197
18.3118,197
18.3118,197
18.3152,197
18.319,197
18.3205,197
18.3225,197
18.3244,197
18.3265,197
18.3285,197
18.3305,197
18.3318,197
18.3318,197
18.3318,197
18.3318,197
18.3318,197
18.3423,197
18.3423,197
18.3423,197
18.3423,197
18.3423,197
18.3423,197
18.3423,197
18.3423,197
18.3583,197
18.3583,197
18.3583,197
18.3644,197
18.3644,197
18.3644,197
18.3644,197
18.3644,197
18.3742,197
18.3765,197
18.3765,197
18.3765,197
18.3822,197
18.3822,197
18.3822,197
18.3822,197
18.3902,197
18.3926,197
18.3946,197
18.3966,197
18.3979,197
18.3979,197
18.3979,197
18.3979,197
18.4063,197
18.4063,197
18.4063,197
18.4063,197
18.4063,197
18.4063,197
18.4189,197
18.4189,197
18.4222,197
18.4222,197
18.4222,197
18.4222,197
18.4222,197
18.4222,197
18.4222,197
18.4222,197
18.4382,197
18.4404,197
18.4424,197
18.4444,197
18.4464,197
18.4479,197
18.4479,197
18.4479,197
18.4543,197
18.4565,197
18.4565,197
18.4565,197
18.4565,197
18.4565,197
18.4565,197
18.4565,197
18.4701,197
18.4701,197
18.4701,197
18.4701,197
18.4701,197
18.4701,197
18.4822,197
18.4822,197
18.4862,197
18.4884,197
18.4904,197
18.4924,197
18.4944,197
18.4964,197
18.4964,197
18.4964,197
18.5025,197
18.5045,197
18.5064,197
18.5085,197
18.5101,197
18.5101,197
18.5101,197
18.5101,197
18.5183,197
18.521,197
18.5224,197
18.5224,197
18.5224,197
18.5224,197
18.5224,197
18.5322,197
18.5341,197
18.5364,197
18.5384,197
18.5404,197
18.5425,197
18.5444,197
18.5464,197
18.5479,197
18.5499,197
18.5525,197
18.5544,197
18.5564,197
18.5584,197
18.5604,197
18.5604,197
18.5604,197
18.566,197
18.5679,197
18.5704,197
18.5725,197
18.5744,197
18.5764,197
18.5764,197
18.5764,197
18.582,197
18.582,197
18.5864,197
18.5864,197
18.5864,197
18.5864,197
18.5864,197
18.5864,197
18.598,197
18.598,197
18.598,197
18.598,197
18.598,197
18.598,197
18.598,197
18.598,197
18.6142,197
18.6159,197
18.6184,197
18.621,197
18.6224,197
18.6224,197
18.6224,197
18.6224,197
18.6302,197
18.6312,197
18.6345,197
18.6364,197
18.6385,197
18.6404,197
18.6404,197
18.6404,197
18.6462,197
18.6478,197
18.6478,197
18.6478,197
18.6478,197
18.6478,197
18.6478,197
18.6478,197
18.6622,197
18.6622,197
18.6642,197
18.6642,197
18.6642,197
18.6642,197
18.6642,197
18.6642,197
18.6782,197
18.68,197
18.6814,197
18.6814,197
18.6814,197
18.6814,197
18.6814,197
18.6814,197
18.6944,197
18.6944,197
18.6944,197
18.6944,197
18.6944,197
18.6944,197
18.6944,197
18.6944,197
18.7104,197
18.7125,197
18.7148,197
18.7148,197
18.7148,197
18.7209,197
18.7209,197
18.7209,197
18.7262,197
18.7262,197
18.7262,197
18.7262,197
18.7262,197
18.7262,197
18.7262,197
18.7262,197
18.7422,197
18.7444,197
18.7444,197
18.7444,197
18.7444,197
18.7444,197
18.7444,197
18.7444,197
18.7582,197
18.7582,197
18.7582,197
18.7582,197
18.7582,197
18.7582,197
18.7582,197
18.7582,197
18.7742,197
18.7742,197
18.7783,197
18.7792,197
18.7792,197
18.7792,197
18.7792,197
18.7874,197
18.7894,197
18.7919,197
18.7936,197
18.7953,197
18.797,197
18.8002,197
18.802,197
18.802,197
18.8052,197
18.8052,197
18.8052,197
18.8052,197
18.8052,197
18.8052,197
18.8052,197
18.8052,197
18.8212,197
18.8232,197
18.8253,197
18.8253,197
18.8253,197
18.8253,197
18.8253,197
18.8253,197
18.8374,197
18.8374,197
18.8374,197
18.8374,197
18.8374,197
18.8374,197
18.8374,197
18.8374,197
18.8548,197
18.8558,197
18.8558,197
18.8558,197
18.8558,197
18.8558,197
18.8653,197
18.8679,197
18.8699,197
18.8719,197
18.874,197
18.874,197
18.8785,197
18.8805,197
18.8822,197
18.8829,197
18.8829,197
18.8829,197
18.8829,197
18.8829,197
18.8829,197
18.8829,197
18.8982,197
18.8982,197
18.8982,197
18.8982,197
18.8982,197
18.8982,198
18.8982,197
18.8982,197
18.9144,197
18.9164,197
18.9164,197
18.92,197
18.9215,197
18.9215,197
18.9215,197
18.9215,197
18.9303,197
18.9328,197
18.9338,197
18.9338,197
18.9338,197
18.9388,197
18.9415,197
18.9435,197
18.946,197
18.946,197
18.946,197
18.9518,197
18.9518,197
18.9555,197
18.9576,197
18.9596,197
18.9616,197
18.9636,197
18.9656,197
18.9676,197
18.9696,197
18.9716,197
18.9716,197
18.9716,197
18.9775,197
18.9796,197
18.9816,197
18.9836,197
18.9836,197
18.9836,197
18.9836,197
18.99,197
18.9935,197
18.9955,197
18.9976,197
18.9976,197
18.9976,197
18.9976,197
19.0045,197
19.0065,197
19.0088,197
19.0108,197
19.0108,197
19.0142,197
19.0175,197
19.0195,197
19.0215,197
19.0215,197
19.0249,197
19.0279,197
19.0299,197
19.031,197
19.0339,197
19.0359,197
19.0359,197
19.0359,197
19.041,197
19.0422,197
19.0422,197
19.0422,197
19.0422,197
19.0422,197
19.0422,197
19.0422,197
19.0569,197
19.0569,197
19.0569,197
19.0569,197
19.0569,197
19.0569,197
19.0569,197
19.0569,197
19.0728,197
19.0728,197
19.0728,197
19.0728,197
19.0728,197
19.0728,197
19.0728,197
19.0728,197
19.0889,197
19.0889,197
19.0889,197
19.0889,197
19.0889,197
19.0889,197
19.0889,197
19.0889,197
19.1049,197
19.1049,197
19.1049,197
19.1049,197
19.1049,197
19.1049,197
19.1049,197
19.1049,197
19.1218,197
19.1218,197
19.1218,197
19.1218,197
19.1218,197
19.1218,197
19.1218,197
19.1218,197
19.1381,197
19.1404,197
19.1404,197
19.1404,197
19.1404,197
19.1404,197
19.1404,197
19.1404,197
19.1531,197
19.1551,197
19.1551,197
19.1551,197
19.1551,197
19.1551,197
19.1661,197
19.1661,197
19.1699,197
19.1724,197
19.1744,197
19.1764,197
19.1784,197
19.1804,197
19.1822,197
19.1848,197
19.1848,197
19.1848,197
19.1848,197
19.1848,197
19.1848,197
19.1848,197
19.1848,197
19.1848,197
